# Time (s),DUT (V),TEM (V)
0.000000000000000000e+00,-1.876910452468766310e-03,-1.876910452468766310e-03
2.000400160064025567e-11,-1.249591655118929574e-03,-1.249591655118929574e-03
4.000800320128051133e-11,-6.106546783130444847e-04,-6.106546783130444847e-04
6.001200480192076700e-11,-2.635682458465571365e-06,-2.635682458465571365e-06
8.001600640256102266e-11,5.334543858311022483e-04,5.334543858311022483e-04
1.000200080032012783e-10,9.607891394964160250e-04,9.607891394964160250e-04
1.200240096038415340e-10,1.249137175886187116e-03,1.249137175886187116e-03
1.400280112044817897e-10,1.376868700584060008e-03,1.376868700584060008e-03
1.600320128051220453e-10,1.332428287601203788e-03,1.332428287601203788e-03
1.800360144057623010e-10,1.115176872543766247e-03,1.115176872543766247e-03
2.000400160064025567e-10,7.355455172108708037e-04,7.355455172108708037e-04
2.200440176070428123e-10,2.144867451073731055e-04,2.144867451073731055e-04
2.400480192076830680e-10,-4.177463865450229677e-04,-4.177463865450229677e-04
2.600520208083233237e-10,-1.123420636221514899e-03,-1.123420636221514899e-03
2.800560224089635793e-10,-1.859631219510656658e-03,-1.859631219510656658e-03
3.000600240096038350e-10,-2.580956148867969736e-03,-2.580956148867969736e-03
3.200640256102440907e-10,-3.242291051001038905e-03,-3.242291051001038905e-03
3.400680272108843463e-10,-3.801686917113830493e-03,-3.801686917113830493e-03
3.600720288115246020e-10,-4.223012043187043298e-03,-4.223012043187043298e-03
3.800760304121648577e-10,-4.478269471408865068e-03,-4.478269471408865068e-03
4.000800320128051133e-10,-4.549421968054926692e-03,-4.549421968054926692e-03
4.200840336134453690e-10,-4.429606711883810576e-03,-4.429606711883810576e-03
4.400880352140856247e-10,-4.123659567226261626e-03,-4.123659567226261626e-03
4.600920368147258803e-10,-3.647911740783477737e-03,-3.647911740783477737e-03
4.800960384153661360e-10,-3.029267095732545573e-03,-3.029267095732545573e-03
5.001000400160063916e-10,-2.303613574586854153e-03,-2.303613574586854153e-03
5.201040416166466473e-10,-1.513664223630321794e-03,-1.513664223630321794e-03
5.401080432172869030e-10,-7.063595621449867464e-04,-7.063595621449867464e-04
5.601120448179271586e-10,7.000880263977884380e-05,7.000880263977884380e-05
5.801160464185674143e-10,7.687751518892038758e-04,7.687751518892038758e-04
6.001200480192076700e-10,1.347791882390609458e-03,1.347791882390609458e-03
6.201240496198479256e-10,1.772056049457154019e-03,1.772056049457154019e-03
6.401280512204881813e-10,2.015905051114853797e-03,2.015905051114853797e-03
6.601320528211284370e-10,2.064642455115034848e-03,2.064642455115034848e-03
6.801360544217686926e-10,1.915489963686432991e-03,1.915489963686432991e-03
7.001400560224089483e-10,1.577803164638010274e-03,1.577803164638010274e-03
7.201440576230492040e-10,1.072534448196127334e-03,1.072534448196127334e-03
7.401480592236894596e-10,4.309734278814915994e-04,4.309734278814915994e-04
7.601520608243297153e-10,-3.071595460183316681e-04,-3.071595460183316681e-04
7.801560624249699710e-10,-1.096150491087065490e-03,-1.096150491087065490e-03
8.001600640256102266e-10,-1.887109641301719940e-03,-1.887109641301719940e-03
8.201640656262504823e-10,-2.630995825896409544e-03,-2.630995825896409544e-03
8.401680672268907380e-10,-3.281659629527589484e-03,-3.281659629527589484e-03
8.601720688275309936e-10,-3.798715739846264365e-03,-3.798715739846264365e-03
8.801760704281712493e-10,-4.150064891871916781e-03,-4.150064891871916781e-03
9.001800720288115050e-10,-4.313907085715204537e-03,-4.313907085715204537e-03
9.201840736294517606e-10,-4.280118993249051006e-03,-4.280118993249051006e-03
9.401880752300919129e-10,-4.050907759142127924e-03,-4.050907759142127924e-03
9.601920768307322720e-10,-3.640698310287656184e-03,-3.640698310287656184e-03
9.801960784313726310e-10,-3.075259022964633993e-03,-3.075259022964633993e-03
1.000200080032012783e-09,-2.390118180633902904e-03,-2.390118180633902904e-03
1.020204081632652936e-09,-1.628368108415999965e-03,-1.628368108415999965e-03
1.040208083233293295e-09,-8.379924007796662588e-04,-8.379924007796662588e-04
1.060212084833933654e-09,-6.888183660711449724e-05,-6.888183660711449724e-05
1.080216086434573806e-09,6.302755140615230777e-04,6.302755140615230777e-04
1.100220088035213958e-09,1.215036122145363986e-03,1.215036122145363986e-03
1.120224089635854317e-09,1.647984639098875942e-03,1.647984639098875942e-03
1.140228091236494676e-09,1.901084855562414468e-03,1.901084855562414468e-03
1.160232092837134829e-09,1.957450094033185220e-03,1.957450094033185220e-03
1.180236094437774981e-09,1.812421080015777682e-03,1.812421080015777682e-03
1.200240096038415340e-09,1.473882368528656520e-03,1.473882368528656520e-03
1.220244097639055699e-09,9.617958633173389390e-04,9.617958633173389390e-04
1.240248099239695851e-09,3.069788945599900626e-04,3.069788945599900626e-04
1.260252100840336004e-09,-4.507983433777578439e-04,-4.507983433777578439e-04
1.280256102440976363e-09,-1.265278419064878607e-03,-1.265278419064878607e-03
1.300260104041616722e-09,-2.086592261769993229e-03,-2.086592261769993229e-03
1.320264105642256874e-09,-2.864365615853924074e-03,-2.864365615853924074e-03
1.340268107242897026e-09,-3.550862373255704672e-03,-3.550862373255704672e-03
1.360272108843537385e-09,-4.103968057493592725e-03,-4.103968057493592725e-03
1.380276110444177744e-09,-4.489826305298130239e-03,-4.489826305298130239e-03
1.400280112044817897e-09,-4.684962517781885057e-03,-4.684962517781885057e-03
1.420284113645458049e-09,-4.677760625766132913e-03,-4.677760625766132913e-03
1.440288115246098408e-09,-4.469199168668312044e-03,-4.469199168668312044e-03
1.460292116846738767e-09,-4.072799121039357567e-03,-4.072799121039357567e-03
1.480296118447378919e-09,-3.513785231375588132e-03,-3.513785231375588132e-03
1.500300120048019072e-09,-2.827511978136648934e-03,-2.827511978136648934e-03
1.520304121648659431e-09,-2.057251502896149161e-03,-2.057251502896149161e-03
1.540308123249299790e-09,-1.251481140310469874e-03,-1.251481140310469874e-03
1.560312124849939942e-09,-4.608398874324506553e-04,-4.608398874324506553e-04
1.580316126450580094e-09,2.650556720989653381e-04,2.650556720989653381e-04
1.600320128051220453e-09,8.807362066797302068e-04,8.807362066797302068e-04
1.620324129651860812e-09,1.347748708185142648e-03,1.347748708185142648e-03
1.640328131252500965e-09,1.637088866544220579e-03,1.637088866544220579e-03
1.660332132853141117e-09,1.731042819395066466e-03,1.731042819395066466e-03
1.680336134453781476e-09,1.624321086910446906e-03,1.624321086910446906e-03
1.700340136054421835e-09,1.324411695926210704e-03,1.324411695926210704e-03
1.720344137655061987e-09,8.511283925400775236e-04,8.511283925400775236e-04
1.740348139255702140e-09,2.353803807534405896e-04,2.353803807534405896e-04
1.760352140856342499e-09,-4.827609627385653478e-04,-4.827609627385653478e-04
1.780356142456982858e-09,-1.256578543065933317e-03,-1.256578543065933317e-03
1.800360144057623010e-09,-2.035652321587505531e-03,-2.035652321587505531e-03
1.820364145658263162e-09,-2.769044319453471507e-03,-2.769044319453471507e-03
1.840368147258903521e-09,-3.408526010020374551e-03,-3.408526010020374551e-03
1.860372148859543880e-09,-3.911645023363943645e-03,-3.911645023363943645e-03
1.880376150460183826e-09,-4.244437601349246650e-03,-4.244437601349246650e-03
1.900380152060824185e-09,-4.383614947043507071e-03,-4.383614947043507071e-03
1.920384153661464544e-09,-4.318084179051802710e-03,-4.318084179051802710e-03
1.940388155262104903e-09,-4.049706015140134077e-03,-4.049706015140134077e-03
1.960392156862745262e-09,-3.593238994480796658e-03,-3.593238994480796658e-03
1.980396158463385208e-09,-2.975471027054006970e-03,-2.975471027054006970e-03
2.000400160064025567e-09,-2.233590139804001850e-03,-2.233590139804001850e-03
2.020404161664665926e-09,-1.412894264169807816e-03,-1.412894264169807816e-03
2.040408163265305871e-09,-5.639817565013731208e-04,-5.639817565013731208e-04
2.060412164865946230e-09,2.604025843240080889e-04,2.604025843240080889e-04
2.080416166466586589e-09,1.008669041691049066e-03,1.008669041691049066e-03
2.100420168067226948e-09,1.633625194393907966e-03,1.633625194393907966e-03
2.120424169667867307e-09,2.095455030209438223e-03,2.095455030209438223e-03
2.140428171268507253e-09,2.364247043336618025e-03,2.364247043336618025e-03
2.160432172869147612e-09,2.421911116798616467e-03,2.421911116798616467e-03
2.180436174469787971e-09,2.263361849310455056e-03,2.263361849310455056e-03
2.200440176070427916e-09,1.896891638148866157e-03,1.896891638148866157e-03
2.220444177671068276e-09,1.343707432027729321e-03,1.343707432027729321e-03
2.240448179271708635e-09,6.366574587335155832e-04,6.366574587335155832e-04
2.260452180872348994e-09,-1.817748721697490721e-04,-1.817748721697490721e-04
2.280456182472989353e-09,-1.062086489901729273e-03,-1.062086489901729273e-03
2.300460184073629298e-09,-1.950817610905021971e-03,-1.950817610905021971e-03
2.320464185674269657e-09,-2.793871577833355671e-03,-2.793871577833355671e-03
2.340468187274910016e-09,-3.539884381671442801e-03,-3.539884381671442801e-03
2.360472188875549962e-09,-4.143432941314159276e-03,-4.143432941314159276e-03
2.380476190476190321e-09,-4.567880718516740754e-03,-4.567880718516740754e-03
2.400480192076830680e-09,-4.787681412344547624e-03,-4.787681412344547624e-03
2.420484193677471039e-09,-4.789994950498364587e-03,-4.789994950498364587e-03
2.440488195278111398e-09,-4.575512706040833766e-03,-4.575512706040833766e-03
2.460492196878751344e-09,-4.158438162382022303e-03,-4.158438162382022303e-03
2.480496198479391703e-09,-3.565622051630936134e-03,-3.565622051630936134e-03
2.500500200080032062e-09,-2.834903997686459218e-03,-2.834903997686459218e-03
2.520504201680672007e-09,-2.012762579999776910e-03,-2.012762579999776910e-03
2.540508203281312366e-09,-1.151419357967774660e-03,-1.151419357967774660e-03
2.560512204881952725e-09,-3.055770050885768226e-04,-3.055770050885768226e-04
2.580516206482593084e-09,4.710048995417905212e-04,4.710048995417905212e-04
2.600520208083233443e-09,1.128882185103435073e-03,1.128882185103435073e-03
2.620524209683873389e-09,1.626034994265901108e-03,1.626034994265901108e-03
2.640528211284513748e-09,1.930517766027127014e-03,1.930517766027127014e-03
2.660532212885154107e-09,2.022483090070594479e-03,2.022483090070594479e-03
2.680536214485794052e-09,1.895451096475470444e-03,1.895451096475470444e-03
2.700540216086434412e-09,1.556743064256681762e-03,1.556743064256681762e-03
2.720544217687074771e-09,1.027050170968450173e-03,1.027050170968450173e-03
2.740548219287715130e-09,3.391624976047689704e-04,3.391624976047689704e-04
2.760552220888355489e-09,-4.640638486726392361e-04,-4.640638486726392361e-04
2.780556222488995434e-09,-1.332375641886515520e-03,-1.332375641886515520e-03
2.800560224089635793e-09,-2.211261416475016322e-03,-2.211261416475016322e-03
2.820564225690276152e-09,-3.045364381211067110e-03,-3.045364381211067110e-03
2.840568227290916098e-09,-3.781955780355186324e-03,-3.781955780355186324e-03
2.860572228891556457e-09,-4.374250831491792620e-03,-4.374250831491792620e-03
2.880576230492196816e-09,-4.784358755373989761e-03,-4.784358755373989761e-03
2.900580232092837175e-09,-4.985680911970391711e-03,-4.985680911970391711e-03
2.920584233693477534e-09,-4.964605287773659476e-03,-4.964605287773659476e-03
2.940588235294117480e-09,-4.721389420879632676e-03,-4.721389420879632676e-03
2.960592236894757839e-09,-4.270174571953478347e-03,-4.270174571953478347e-03
2.980596238495398198e-09,-3.638128381511983485e-03,-3.638128381511983485e-03
3.000600240096038143e-09,-2.863767986509964565e-03,-2.863767986509964565e-03
3.020604241696678502e-09,-1.994567164237672115e-03,-1.994567164237672115e-03
3.040608243297318861e-09,-1.083996279863414392e-03,-1.083996279863414392e-03
3.060612244897959220e-09,-1.881797797115374298e-04,-1.881797797115374298e-04
3.080616246498599579e-09,6.376195865580840810e-04,6.376195865580840810e-04
3.100620248099239525e-09,1.342469278792260542e-03,1.342469278792260542e-03
3.120624249699879884e-09,1.882970158160567628e-03,1.882970158160567628e-03
3.140628251300520243e-09,2.225992492035958840e-03,2.225992492035958840e-03
3.160632252901160188e-09,2.350771821407803518e-03,2.350771821407803518e-03
3.180636254501800547e-09,2.250231593706920538e-03,2.250231593706920538e-03
3.200640256102440907e-09,1.931447776187658182e-03,1.931447776187658182e-03
3.220644257703081266e-09,1.415224419085283703e-03,1.415224419085283703e-03
3.240648259303721625e-09,7.348049670722751588e-04,7.348049670722751588e-04
3.260652260904361570e-09,-6.620148322797445202e-05,-6.620148322797445202e-05
3.280656262505001929e-09,-9.365502367166440856e-04,-9.365502367166440856e-04
3.300660264105642288e-09,-1.820577057301230690e-03,-1.820577057301230690e-03
3.320664265706282234e-09,-2.661698972408062594e-03,-2.661698972408062594e-03
3.340668267306922593e-09,-3.405980203397821447e-03,-3.405980203397821447e-03
3.360672268907562952e-09,-4.005539007501040388e-03,-4.005539007501040388e-03
3.380676270508203311e-09,-4.421580716313586179e-03,-4.421580716313586179e-03
3.400680272108843670e-09,-4.626865284119124899e-03,-4.626865284119124899e-03
3.420684273709483615e-09,-4.607452800009274700e-03,-4.607452800009274700e-03
3.440688275310123975e-09,-4.363615489167534112e-03,-4.363615489167534112e-03
3.460692276910764334e-09,-3.909856918830787245e-03,-3.909856918830787245e-03
3.480696278511404279e-09,-3.274035166604056732e-03,-3.274035166604056732e-03
3.500700280112044638e-09,-2.495643085824962235e-03,-2.495643085824962235e-03
3.520704281712684997e-09,-1.623351967681535687e-03,-1.623351967681535687e-03
3.540708283313325356e-09,-7.119714993082926734e-04,-7.119714993082926734e-04
3.560712284913965715e-09,1.809839974179765654e-04,1.809839974179765654e-04
3.580716286514605661e-09,9.989078471852208974e-04,9.989078471852208974e-04
3.600720288115246020e-09,1.689664895626722318e-03,1.689664895626722318e-03
3.620724289715886379e-09,2.208882579198316598e-03,2.208882579198316598e-03
3.640728291316526324e-09,2.522761454748849354e-03,2.522761454748849354e-03
3.660732292917166683e-09,2.610227232056215943e-03,2.610227232056215943e-03
3.680736294517807043e-09,2.464287405567256763e-03,2.464287405567256763e-03
3.700740296118447402e-09,2.092505350567479272e-03,2.092505350567479272e-03
3.720744297719087761e-09,1.516560120921365933e-03,1.516560120921365933e-03
3.740748299319727706e-09,7.709176866668197370e-04,7.709176866668197370e-04
3.760752300920367652e-09,-9.930463636098553655e-05,-9.930463636098553655e-05
3.780756302521008424e-09,-1.041147817919960356e-03,-1.041147817919960356e-03
3.800760304121648370e-09,-1.997119307692904033e-03,-1.997119307692904033e-03
3.820764305722289142e-09,-2.908792500392864619e-03,-2.908792500392864619e-03
3.840768307322929088e-09,-3.720471372286584741e-03,-3.720471372286584741e-03
3.860772308923569033e-09,-4.382689586264826992e-03,-4.382689586264826992e-03
3.880776310524209806e-09,-4.855323287591224203e-03,-4.855323287591224203e-03
3.900780312124849751e-09,-5.110120676109880002e-03,-5.110120676109880002e-03
3.920784313725490524e-09,-5.132487773150079362e-03,-5.132487773150079362e-03
3.940788315326130470e-09,-4.922416343138688241e-03,-4.922416343138688241e-03
3.960792316926770415e-09,-4.494493772165946213e-03,-4.494493772165946213e-03
3.980796318527411188e-09,-3.876992471857699726e-03,-3.876992471857699726e-03
4.000800320128051133e-09,-3.110094434136618027e-03,-3.110094434136618027e-03
4.020804321728691079e-09,-2.243361250221439628e-03,-2.243361250221439628e-03
4.040808323329331851e-09,-1.332607767787868849e-03,-1.332607767787868849e-03
4.060812324929971797e-09,-4.363755573027693307e-04,-4.363755573027693307e-04
4.080816326530611742e-09,3.877719301473821559e-04,3.877719301473821559e-04
4.100820328131252515e-09,1.086898859493050937e-03,1.086898859493050937e-03
4.120824329731892460e-09,1.616060455569854086e-03,1.616060455569854086e-03
4.140828331332533233e-09,1.941167204927421973e-03,1.941167204927421973e-03
4.160832332933173179e-09,2.041167647962346520e-03,2.041167647962346520e-03
4.180836334533813124e-09,1.909410197161992518e-03,1.909410197161992518e-03
4.200840336134453897e-09,1.554095943940730831e-03,1.554095943940730831e-03
4.220844337735093842e-09,9.977916376619267759e-04,9.977916376619267759e-04
4.240848339335734615e-09,2.760313386437821112e-04,2.760313386437821112e-04
4.260852340936374560e-09,-5.649070776271516861e-04,-5.649070776271516861e-04
4.280856342537014506e-09,-1.470912002008316474e-03,-1.470912002008316474e-03
4.300860344137655278e-09,-2.383452422957537797e-03,-2.383452422957537797e-03
4.320864345738295224e-09,-3.243281800735357129e-03,-3.243281800735357129e-03
4.340868347338935169e-09,-3.994197886395087216e-03,-3.994197886395087216e-03
4.360872348939575942e-09,-4.586620707803253094e-03,-4.586620707803253094e-03
4.380876350540215887e-09,-4.980761783955661888e-03,-4.980761783955661888e-03
4.400880352140855833e-09,-5.149182845766692336e-03,-5.149182845766692336e-03
4.420884353741496606e-09,-5.078580385470962515e-03,-5.078580385470962515e-03
4.440888355342136551e-09,-4.770680861973782515e-03,-4.770680861973782515e-03
4.460892356942777324e-09,-4.242187321918599111e-03,-4.242187321918599111e-03
4.480896358543417269e-09,-3.523778043228653709e-03,-3.523778043228653709e-03
4.500900360144057215e-09,-2.658217798328516620e-03,-2.658217798328516620e-03
4.520904361744697987e-09,-1.697698676004968672e-03,-1.697698676004968672e-03
4.540908363345337933e-09,-7.005765201013204732e-04,-7.005765201013204732e-04
4.560912364945978705e-09,2.722921890653470789e-04,2.722921890653470789e-04
4.580916366546618651e-09,1.161382253646125670e-03,1.161382253646125670e-03
4.600920368147258596e-09,1.912258308396670627e-03,1.912258308396670627e-03
4.620924369747899369e-09,2.479021709478090515e-03,2.479021709478090515e-03
4.640928371348539315e-09,2.827226441279329875e-03,2.827226441279329875e-03
4.660932372949179260e-09,2.936077639269150680e-03,2.936077639269150680e-03
4.680936374549820033e-09,2.799771158206035455e-03,2.799771158206035455e-03
4.700940376150459978e-09,2.427886564696265636e-03,2.427886564696265636e-03
4.720944377751099924e-09,1.844805620383621787e-03,1.844805620383621787e-03
4.740948379351740696e-09,1.088189991333405379e-03,1.088189991333405379e-03
4.760952380952380642e-09,2.066116758086288842e-04,2.066116758086288842e-04
4.780956382553021414e-09,-7.435163014796577000e-04,-7.435163014796577000e-04
4.800960384153661360e-09,-1.701516467271231830e-03,-1.701516467271231830e-03
4.820964385754301305e-09,-2.606305394571149792e-03,-2.606305394571149792e-03
4.840968387354942078e-09,-3.400290012692717793e-03,-3.400290012692717793e-03
4.860972388955582023e-09,-4.033054273579296696e-03,-4.033054273579296696e-03
4.880976390556222796e-09,-4.464601021150225134e-03,-4.464601021150225134e-03
4.900980392156862742e-09,-4.667941163718203161e-03,-4.667941163718203161e-03
4.920984393757502687e-09,-4.630862787308382897e-03,-4.630862787308382897e-03
4.940988395358143460e-09,-4.356764160319766960e-03,-4.356764160319766960e-03
4.960992396958783405e-09,-3.864493466399635153e-03,-3.864493466399635153e-03
4.980996398559423351e-09,-3.187200869619570640e-03,-3.187200869619570640e-03
5.001000400160064123e-09,-2.370271210248476798e-03,-2.370271210248476798e-03
5.021004401760704069e-09,-1.468464284649259946e-03,-1.468464284649259946e-03
5.041008403361344014e-09,-5.424405513148406128e-04,-5.424405513148406128e-04
5.061012404961984787e-09,3.451100263828783387e-04,3.451100263828783387e-04
5.081016406562624732e-09,1.133492012758349331e-03,1.133492012758349331e-03
5.101020408163265505e-09,1.767926457557957411e-03,1.767926457557957411e-03
5.121024409763905450e-09,2.203120946280948383e-03,2.203120946280948383e-03
5.141028411364545396e-09,2.406258860155853756e-03,2.406258860155853756e-03
5.161032412965186169e-09,2.359214496409048085e-03,2.359214496409048085e-03
5.181036414565826114e-09,2.059848642218664507e-03,2.059848642218664507e-03
5.201040416166466887e-09,1.522296579818142523e-03,1.522296579818142523e-03
5.221044417767106832e-09,7.762237481631006301e-04,7.762237481631006301e-04
