# Time (s),DUT (V),TEM (V)
0.000000000000000000e+00,-4.434710776931229548e-04,5.165070673910083891e-04
2.000400160064025567e-11,-5.145491023007347196e-04,1.767195810517850152e-04
4.000800320128051133e-11,-5.770962101155367643e-04,-1.544802941804207714e-04
6.001200480192076700e-11,-6.285177874516940065e-04,-4.580776416858989546e-04
8.001600640256102266e-11,-6.670102518877392894e-04,-7.169621952914116475e-04
1.000200080032012783e-10,-6.916318786550401708e-04,-9.168863994971886968e-04
1.200240096038415340e-10,-7.023218522577376896e-04,-1.047244507906503874e-03
1.400280112044817897e-10,-6.998674201481450748e-04,-1.101629310946169223e-03
1.600320128051220453e-10,-6.858220233676212002e-04,-1.078136616898077264e-03
1.800360144057623010e-10,-6.623800797039879409e-04,-9.794027741129123204e-04
2.000400160064025567e-10,-6.322165384397403914e-04,-8.123764045071301190e-04
2.200440176070428123e-10,-5.983012742943777688e-04,-5.878411715895685884e-04
2.400480192076830680e-10,-5.636997334161126432e-04,-3.197209045666638775e-04
2.600520208083233237e-10,-5.313719135998651311e-04,-2.421089438171866636e-05
2.800560224089635793e-10,-5.039817212171658753e-04,2.812110547714413581e-04
3.000600240096038350e-10,-4.837280067564998201e-04,5.788337479719938639e-04
3.200640256102440907e-10,-4.722071879463729158e-04,8.517589734279880495e-04
3.400680272108843463e-10,-4.703154100734910728e-04,1.084883121921528890e-03
3.600720288115246020e-10,-4.781957853430549629e-04,1.265756640975859238e-03
3.800760304121648577e-10,-4.952335400619894664e-04,1.385271876039730760e-03
4.000800320128051133e-10,-5.200990397956574331e-04,1.438140674781020634e-03
4.200840336134453690e-10,-5.508358254757690729e-04,1.423136141325241633e-03
4.400880352140856247e-10,-5.849881423271610604e-04,1.343087326902759390e-03
4.600920368147258803e-10,-6.197601311304553598e-04,1.204630558185249261e-03
4.800960384153661360e-10,-6.521970097973461790e-04,1.017735638140300231e-03
5.001000400160063916e-10,-6.793773064302856572e-04,7.950384410782746804e-04
5.201040416166466473e-10,-6.986045829654290986e-04,5.510226807873515927e-04
5.401080432172869030e-10,-7.075871434253679093e-04,3.011022039622822627e-04
5.601120448179271586e-10,-7.045949456834454082e-04,6.066056290341390235e-05
5.801160464185674143e-10,-6.885842847777891382e-04,-1.558934415290190141e-04
6.001200480192076700e-10,-6.592827078029871949e-04,-3.359971664417229142e-04
6.201240496198479256e-10,-6.172289430733063440e-04,-4.696804306814045911e-04
6.401280512204881813e-10,-5.637652433337527044e-04,-5.501427748276380234e-04
6.601320528211284370e-10,-5.009823019760220640e-04,-5.741284147377928582e-04
6.801360544217686926e-10,-4.316196430042218641e-04,-5.420782060854059930e-04
7.001400560224089483e-10,-3.589269524542411534e-04,-4.580516456179094037e-04
7.201440576230492040e-10,-2.864940647531632112e-04,-3.294259369145140681e-04
7.401480592236894596e-10,-2.180591151735818199e-04,-1.663925995870625240e-04
7.601520608243297153e-10,-1.573056186985329432e-04,1.871580301624386540e-05
7.801560624249699710e-10,-1.076598679627449785e-04,2.122262172250393179e-04
8.001600640256102266e-10,-7.210002591617783161e-05,4.000029638460581927e-04
8.201640656262504823e-10,-5.298762721952192519e-05,5.683486518323090358e-04
8.401680672268907380e-10,-5.193093760473328649e-05,7.048728943208861690e-04
8.601720688275309936e-10,-6.968782802589867313e-05,7.992759368920689242e-04
8.801760704281712493e-10,-1.061136053108401262e-04,8.439998352982116831e-04
9.001800720288115050e-10,-1.601567312837910392e-04,8.347081601049985726e-04
9.201840736294517606e-10,-2.299027016798317331e-04,7.705658346234753320e-04
9.401880752300919129e-10,-3.126636956208977145e-04,6.543029731895710823e-04
9.601920768307322720e-10,-4.051090956009609180e-04,4.920597298916087273e-04
9.801960784313726310e-10,-5.034297565841506974e-04,2.930223972489204320e-04
1.000200080032012783e-09,-6.035270929832430367e-04,6.887351560631734231e-05
1.020204081632652936e-09,-7.012167515235104721e-04,-1.669101782442578810e-04
1.040208083233293295e-09,-7.924359141459429417e-04,-3.998691724692701103e-04
1.060212084833933654e-09,-8.734431627670446400e-04,-6.154328445340394478e-04
1.080216086434573806e-09,-9.410003366894708959e-04,-7.997988896658498898e-04
1.100220088035213958e-09,-9.925268891828311832e-04,-9.407678445915383224e-04
1.120224089635854317e-09,-1.026218835686074776e-03,-1.028482995750066003e-03
1.140228091236494676e-09,-1.041126387886794156e-03,-1.056031865591737853e-03
1.160232092837134829e-09,-1.037186669187520121e-03,-1.019873945293401415e-03
1.180236094437774981e-09,-1.015210376152838375e-03,-9.200698609430984186e-04
1.200240096038415340e-09,-9.768237482744607670e-04,-7.602990793072578971e-04
1.220244097639055699e-09,-9.243695960470464353e-04,-5.476658572268991877e-04
1.240248099239695851e-09,-8.607732844150152007e-04,-2.923056600937656998e-04
1.260252100840336004e-09,-7.893813601114205245e-04,-6.815975849172342831e-06
1.280256102440976363e-09,-7.137818539669107780e-04,2.944543565229026548e-04
1.300260104041616722e-09,-6.376161162449142227e-04,5.962150926617205103e-04
1.320264105642256874e-09,-5.643923177124712809e-04,8.830960600596899582e-04
1.340268107242897026e-09,-4.973104662148056330e-04,1.140509758220384535e-03
1.360272108843537385e-09,-4.391079739223022302e-04,1.355465002934650928e-03
1.380276110444177744e-09,-3.919335192663262434e-04,1.517284812816421411e-03
1.400280112044817897e-09,-3.572552604897390530e-04,1.618187736989234711e-03
1.420284113645458049e-09,-3.358074757936417142e-04,1.653700164628755425e-03
1.440288115246098408e-09,-3.275775437141486938e-04,1.622877322373473185e-03
1.460292116846738767e-09,-3.318329596277807257e-04,1.528322034328882112e-03
1.480296118447378919e-09,-3.471859336542770097e-04,1.376002207004935630e-03
1.500300120048019072e-09,-3.716911487018730292e-04,1.174879700625441545e-03
1.520304121648659431e-09,-4.029705790437060494e-04,9.363740708829482911e-04
1.540308123249299790e-09,-4.383579651774393866e-04,6.736939836217718715e-04
1.560312124849939942e-09,-4.750546724576875518e-04,4.010763881750686877e-04
1.580316126450580094e-09,-5.102882658757782255e-04,1.329783794324060808e-04
1.600320128051220453e-09,-5.414652208488246682e-04,-1.167311699201969630e-04
1.620324129651860812e-09,-5.663097422620720937e-04,-3.355337584245018045e-04
1.640328131252500965e-09,-5.829816381155018389e-04,-5.129340798309653436e-04
1.660332132853141117e-09,-5.901675244384883530e-04,-6.410062330298974161e-04
1.680336134453781476e-09,-5.871412410929147379e-04,-7.147839435926434505e-04
1.700340136054421835e-09,-5.737911373062147199e-04,-7.324749380360153937e-04
1.720344137655061987e-09,-5.506137378794146147e-04,-6.954901439188020031e-04
1.740348139255702140e-09,-5.186751216722558381e-04,-6.082893015387810624e-04
1.760352140856342499e-09,-4.795430338382600200e-04,-4.780552174184558682e-04
1.780356142456982858e-09,-4.351942234949477762e-04,-3.142186428566299140e-04
1.800360144057623010e-09,-3.879026753768934901e-04,-1.278640620269181011e-04
1.820364145658263162e-09,-3.401152327197013033e-04,6.894694215428689250e-05
1.840368147258903521e-09,-2.943215557230045095e-04,2.638939542211164724e-04
1.860372148859543880e-09,-2.529254145618389403e-04,4.451151785662717372e-04
1.880376150460183826e-09,-2.181239895823285687e-04,6.018824974865496580e-04
1.900380152060824185e-09,-1.918011765120193179e-04,7.251958445640762111e-04
1.920384153661464544e-09,-1.754399220672163613e-04,8.082640800334133261e-04
1.940388155262104903e-09,-1.700574108439654173e-04,8.468468543288906747e-04
1.960392156862745262e-09,-1.761655638814373299e-04,8.394406022018045897e-04
1.980396158463385208e-09,-1.937578745168592326e-04,7.873012844753720946e-04
2.000400160064025567e-09,-2.223221806045553488e-04,6.943062107239664910e-04
2.020404161664665926e-09,-2.608776323280909463e-04,5.666666534334486921e-04
2.040408163265305871e-09,-3.080329317991806963e-04,4.125114533082174686e-04
2.060412164865946230e-09,-3.620619524464040282e-04,2.413689307352235355e-04
2.080416166466586589e-09,-4.209921359817215126e-04,6.357976594198897435e-05
2.100420168067226948e-09,-4.827006388816118630e-04,-1.103231905022405767e-04
2.120424169667867307e-09,-5.450130677078978900e-04,-2.702311169488965932e-04
2.140428171268507253e-09,-6.057997948882211815e-04,-4.070354900654881173e-04
2.160432172869147612e-09,-6.630652595540514373e-04,-5.131317079138503733e-04
2.180436174469787971e-09,-7.150262937884203571e-04,-5.828224371542488737e-04
2.200440176070427916e-09,-7.601763245063856240e-04,-6.125996595082062058e-04
2.220444177671068276e-09,-7.973332292067385543e-04,-6.012920855189609606e-04
2.240448179271708635e-09,-8.256696104285675148e-04,-5.500728991898491812e-04
2.260452180872348994e-09,-8.447252395212008881e-04,-4.623311841994378907e-04
2.280456182472989353e-09,-8.544023496154348925e-04,-3.434183560221127350e-04
2.300460184073629298e-09,-8.549452816685234333e-04,-2.002880158177850064e-04
2.320464185674269657e-09,-8.469066667841845331e-04,-4.105344689630171791e-05
2.340468187274910016e-09,-8.311028345993076456e-04,1.255088243115647854e-04
2.360472188875549962e-09,-8.085614556117824182e-04,2.904785961030990037e-04
2.380476190476190321e-09,-7.804645516437177123e-04,4.453034104341340284e-04
2.400480192076830680e-09,-7.480899518450181279e-04,5.822719664669602632e-04
2.420484193677471039e-09,-7.127540509710874987e-04,6.949228498966429158e-04
2.440488195278111398e-09,-6.757583699753480369e-04,7.783665934820235702e-04
2.460492196878751344e-09,-6.383419603419304960e-04,8.295049687426002492e-04
2.480496198479391703e-09,-6.016411707245828897e-04,8.471380925827451738e-04
2.500500200080032062e-09,-5.666577458686364180e-04,8.319569855704051419e-04
2.520504201680672007e-09,-5.342356901908324211e-04,7.864261989261276406e-04
2.540508203281312366e-09,-5.050468343452543330e-04,7.145676089921311827e-04
2.560512204881952725e-09,-4.795846191092393738e-04,6.216620768473197795e-04
2.580516206482593084e-09,-4.581652760237126909e-04,5.138900671813146845e-04
2.600520208083233443e-09,-4.409353492367280164e-04,3.979352777682015375e-04
2.620524209683873389e-09,-4.278843703868195881e-04,2.805767077265294450e-04
2.640528211284513748e-09,-4.188614627075624508e-04,1.682943501635080375e-04
2.660532212885154107e-09,-4.135946995793613845e-04,6.691189583844857174e-05
2.680536214485794052e-09,-4.117121588903107439e-04,-1.870336207095037032e-05
2.700540216086434412e-09,-4.127637766493833871e-04,-8.486758388309080157e-05
2.720544217687074771e-09,-4.162432886297966639e-04,-1.292237604212979570e-04
2.740548219287715130e-09,-4.216097351796272265e-04,-1.507964630940440123e-04
2.760552220888355489e-09,-4.283081718322556382e-04,-1.499588278119274080e-04
2.780556222488995434e-09,-4.357893610376322563e-04,-1.283181862143885951e-04
2.800560224089635793e-09,-4.435283074317054723e-04,-8.853170701249437691e-05
2.820564225690276152e-09,-4.510415356817559047e-04,-3.406745640516649245e-05
2.840568227290916098e-09,-4.579029973273796386e-04,3.107080482245343857e-05
2.860572228891556457e-09,-4.637584382327416947e-04,1.026351540950557893e-04
2.880576230492196816e-09,-4.683379733412478636e-04,1.764211815242888021e-04
2.900580232092837175e-09,-4.714665162309105871e-04,2.485327026515869644e-04
2.920584233693477534e-09,-4.730716155964217497e-04,3.156067226848768533e-04
2.940588235294117480e-09,-4.731881778099789634e-04,3.749852286534997143e-04
2.960592236894757839e-09,-4.719595213995202241e-04,4.248245463712771843e-04
2.980596238495398198e-09,-4.696342298598214131e-04,4.641376609737237705e-04
3.000600240096038143e-09,-4.665583533847207382e-04,4.927697407219530645e-04
3.020604241696678502e-09,-4.631626619177565355e-04,5.113117963103137745e-04
3.040608243297318861e-09,-4.599448690402004785e-04,5.209616409462458544e-04
3.060612244897959220e-09,-4.574470197746643681e-04,5.233448151195281041e-04
3.080616246498599579e-09,-4.562285502998138925e-04,5.203106829229507853e-04
3.100620248099239525e-09,-4.568358634325180826e-04,5.137203398087604022e-04
3.120624249699879884e-09,-4.597695961280970356e-04,5.052432166475701644e-04
3.140628251300520243e-09,-4.654510574911033217e-04,4.961783238332722690e-04
3.160632252901160188e-09,-4.741895608987640900e-04,4.873140326377945158e-04
3.180636254501800547e-09,-4.861525366472954526e-04,4.788372921425777307e-04
3.200640256102440907e-09,-5.013403707495331461e-04,4.702994433578841288e-04
3.220644257703081266e-09,-5.195678556200017915e-04,4.606415787018996837e-04
3.240648259303721625e-09,-5.404539511797089822e-04,4.482779949577024537e-04
3.260652260904361570e-09,-5.634212406134409944e-04,4.312320009591185613e-04
3.280656262505001929e-09,-5.877060327912240686e-04,4.073144573825804695e-04
3.300660264105642288e-09,-6.123795312825935748e-04,3.743322061237621084e-04
3.320664265706282234e-09,-6.363798841879996860e-04,3.303112062107915682e-04
3.340668267306922593e-09,-6.585542827935099604e-04,2.737178882116866364e-04
3.360672268907562952e-09,-6.777096284429663664e-04,2.036620568727848452e-04
3.380676270508203311e-09,-6.926696768620791127e-04,1.200656254313569828e-04
3.400680272108843670e-09,-7.023360384517934180e-04,2.378349340759449825e-05
3.420684273709483615e-09,-7.057500002190218464e-04,-8.333414856440602878e-05
3.440688275310123975e-09,-7.021518732304728823e-04,-1.984450805179544745e-04
3.460692276910764334e-09,-6.910344843000802749e-04,-3.177866421018259429e-04
3.480696278511404279e-09,-6.721875379007846577e-04,-4.368139392177057588e-04
3.500700280112044638e-09,-6.457298786976816167e-04,-5.503985402398757412e-04
3.520704281712684997e-09,-6.121271793035915759e-04,-6.530774512951210194e-04
3.540708283313325356e-09,-5.721932424519382207e-04,-7.393386770317651518e-04
3.560712284913965715e-09,-5.270739109695345885e-04,-8.039270145016934278e-04
3.580716286514605661e-09,-4.782134819712738827e-04,-8.421520657573249155e-04
3.600720288115246020e-09,-4.273044750290235362e-04,-8.501798990720322701e-04
3.620724289715886379e-09,-3.762225540033152320e-04,-8.252903792880402194e-04
3.640728291316526324e-09,-3.269492930714511031e-04,-7.660838928897615620e-04
3.660732292917166683e-09,-2.814862548702612433e-04,-6.726239118080292682e-04
3.680736294517807043e-09,-2.417644629234850791e-04,-5.465054077986046446e-04
3.700740296118447402e-09,-2.095537598496100625e-04,-3.908433304761682256e-04
3.720744297719087761e-09,-1.863767161276434650e-04,-2.101799422681541630e-04
3.740748299319727706e-09,-1.734316732131832388e-04,-1.031448579707695308e-05
3.760752300920367652e-09,-1.715291657132560687e-04,2.019368385700004930e-04
3.780756302521008424e-09,-1.810453813617276912e-04,4.190385549168077579e-04
3.800760304121648370e-09,-2.018955107102867277e-04,6.330758623510611980e-04
3.820764305722289142e-09,-2.335288504456835116e-04,8.361189903669108284e-04
3.840768307322929088e-09,-2.749464064025117747e-04,1.020592655328839225e-03
3.860772308923569033e-09,-3.247405549059952426e-04,1.179630986468414421e-03
3.880776310524209806e-09,-3.811551298429498606e-04,1.307399086684301985e-03
3.900780312124849751e-09,-4.421631753984792980e-04,1.399364260559647372e-03
3.920784313725490524e-09,-5.055586061222429187e-04,1.452502761538929186e-03
3.940788315326130470e-09,-5.690572062435909819e-04,1.465431509030611177e-03
3.960792316926770415e-09,-6.304018285953638147e-04,1.438458387132674973e-03
3.980796318527411188e-09,-6.874663569925539746e-04,1.373549212153519312e-03
4.000800320128051133e-09,-7.383529961071470240e-04,1.274213983554732836e-03
4.020804321728691079e-09,-7.814777547075483404e-04,1.145319350833282459e-03
4.040808323329331851e-09,-8.156395792013680212e-04,9.928380923507396962e-04
4.060812324929971797e-09,-8.400694454771904379e-04,8.235495974742842659e-04
4.080816326530611742e-09,-8.544567834108946066e-04,6.447077002120556611e-04
4.100820328131252515e-09,-8.589518323783025110e-04,4.636936130766931927e-04
4.120824329731892460e-09,-8.541438401458350876e-04,2.876720950998713842e-04
4.140828331332533233e-09,-8.410163480067241182e-04,1.232683595384812350e-04
4.160832332933173179e-09,-8.208820765835820243e-04,-2.371835396790576640e-05
4.180836334533813124e-09,-7.953010664713827541e-04,-1.485510357447208170e-04
4.200840336134453897e-09,-7.659866698126300243e-04,-2.477305770687380517e-04
4.220844337735093842e-09,-7.347046776798202240e-04,-3.191040139728850908e-04
4.240848339335734615e-09,-7.031712625500476143e-04,-3.619023340101766052e-04
4.260852340936374560e-09,-6.729554905402509264e-04,-3.767087004697235240e-04
4.280856342537014506e-09,-6.453919079405759547e-04,-3.653616231345163993e-04
4.300860344137655278e-09,-6.215081431350142575e-04,-3.308008859601828389e-04
4.320864345738295224e-09,-6.019716185476544756e-04,-2.768667567781809896e-04
4.340868347338935169e-09,-5.870583845968977343e-04,-2.080650188038461832e-04
4.360872348939575942e-09,-5.766458294459198041e-04,-1.293115913838180375e-04
4.380876350540215887e-09,-5.702296557036592344e-04,-4.567091122380187321e-05
4.400880352140855833e-09,-5.669641256154332992e-04,3.789816096454508033e-05
4.420884353741496606e-09,-5.657232390435985728e-04,1.167762983209993542e-04
4.440888355342136551e-09,-5.651793003405238989e-04,1.868867198211064608e-04
4.460892356942777324e-09,-5.638943205748899899e-04,2.448587527334685800e-04
4.480896358543417269e-09,-5.604189488058721131e-04,2.881460936771198557e-04
4.500900360144057215e-09,-5.533931739193913724e-04,3.150967382139096044e-04
4.520904361744697987e-09,-5.416429134862820079e-04,3.249743641490005137e-04
4.540908363345337933e-09,-5.242668159775832563e-04,3.179335953744183928e-04
4.560912364945978705e-09,-5.007081360680954753e-04,2.949538938563261753e-04
4.580916366546618651e-09,-4.708073697002705671e-04,2.577387080231518580e-04
4.600920368147258596e-09,-4.348324092512494392e-04,2.085878615172552812e-04
4.620924369747899369e-09,-3.934842386011379680e-04,1.502519503069201868e-04
4.640928371348539315e-09,-3.478775615951297919e-04,8.577772102235468464e-05
4.660932372949179260e-09,-2.994971673230509453e-04,1.835305927308225670e-05
4.680936374549820033e-09,-2.501322018594489389e-04,-4.884061247146727380e-05
4.700940376150459978e-09,-2.017917613355134788e-04,-1.127619505403407201e-04
4.720944377751099924e-09,-1.566062752841115846e-04,-1.706242469936961102e-04
4.740948379351740696e-09,-1.167199530739377147e-04,-2.199875192697868032e-04
4.760952380952380642e-09,-8.418007537108370666e-05,-2.588264216328219503e-04
4.780956382553021414e-09,-6.082909935470422918e-05,-2.855738805414072701e-04
4.800960384153661360e-09,-4.820540175498206899e-05,-2.991417804668048460e-04
4.820964385754301305e-09,-4.745801744378571300e-05,-2.989211796169110864e-04
4.840968387354942078e-09,-5.927997125007742691e-05,-2.847653595593729729e-04
4.860972388955582023e-09,-8.386379130255717737e-05,-2.569594806758616532e-04
4.880976390556222796e-09,-1.208815916960659739e-04,-2.161807277529796309e-04
4.900980392156862742e-09,-1.694907891149949786e-04,-1.634526154631528471e-04
4.920984393757502687e-09,-2.283651469802953796e-04,-1.000966346762120562e-04
4.940988395358143460e-09,-2.957494983896434559e-04,-2.768372887188335962e-05
4.960992396958783405e-09,-3.695352597643569888e-04,5.201272094101154985e-05
4.980996398559423351e-09,-4.473527781453736935e-04,1.370615657425708269e-04
5.001000400160064123e-09,-5.266757134239580338e-04,2.254161608611337240e-04
5.021004401760704069e-09,-6.049320857439108605e-04,3.149548420944468471e-04
5.041008403361344014e-09,-6.796163452375098783e-04,4.035206644378117220e-04
5.061012404961984787e-09,-7.483968562694740759e-04,4.889616841049099780e-04
5.081016406562624732e-09,-8.092135240200092755e-04,5.691730320036299641e-04
5.101020408163265505e-09,-8.603609032702591629e-04,6.421417460561664337e-04
5.121024409763905450e-09,-9.005529782665779807e-04,7.059948304580539310e-04
5.141028411364545396e-09,-9.289668365698509726e-04,7.590503428395139855e-04
5.161032412965186169e-09,-9.452636175554840784e-04,7.998705426527188186e-04
5.181036414565826114e-09,-9.495863308416540791e-04,8.273153442857079237e-04
5.201040416166466887e-09,-9.425353429085128786e-04,8.405935891972954929e-04
