# Time (s),DUT (V),TEM (V)
0.000000000000000000e+00,-5.384197688110717132e-04,1.998297182092666907e-03
2.000285795941697536e-11,-1.461832330277116352e-04,2.367849685241712326e-03
4.000571591883395072e-11,2.345552715506701673e-04,2.631587119732504629e-03
6.000857387825092932e-11,5.914411547410958637e-04,2.776987538958888661e-03
8.001143183766790145e-11,9.131373512568044136e-04,2.797065200956498892e-03
1.000142897970848736e-10,1.189790789807867793e-03,2.690794642023905218e-03
1.200171477565018586e-10,1.413428115206745612e-03,2.463229027426626881e-03
1.400200057159188178e-10,1.578262381350132660e-03,2.125302546764633489e-03
1.600228636753358029e-10,1.680896985857555396e-03,1.693323658968222921e-03
1.800257216347527880e-10,1.720418331898722298e-03,1.188182848031031549e-03
2.000285795941697472e-10,1.698374302204219439e-03,6.343142867433351024e-04
2.200314375535867322e-10,1.618641319298933304e-03,5.846453671880844327e-05
2.400342955130037173e-10,1.487188247520398023e-03,-5.116676421729294622e-04
2.600371534724207023e-10,1.311750383284601956e-03,-1.048848773279668174e-03
2.800400114318376357e-10,1.101431026319685952e-03,-1.527710173663361952e-03
3.000428693912546207e-10,8.662514146013188367e-04,-1.926054667527902272e-03
3.200457273506716058e-10,6.166719812067434107e-04,-2.226000216603264519e-03
3.400485853100885908e-10,3.631088551627276932e-04,-2.414898603049366911e-03
3.600514432695055759e-10,1.154692491494132607e-04,-2.485979162265702317e-03
3.800543012289225093e-10,-1.172721103313055589e-04,-2.438682229167897075e-03
4.000571591883394943e-10,-3.274359512956664248e-04,-2.278663635910798194e-03
4.200600171477564794e-10,-5.089248138490729944e-04,-2.017469369280256147e-03
4.400628751071734644e-10,-6.574210862975105258e-04,-1.671897384015542335e-03
4.600657330665904495e-10,-7.704898158007676126e-04,-1.263080585168680414e-03
4.800685910260074345e-10,-8.475844408247066751e-04,-8.153401938376059156e-04
5.000714489854243679e-10,-8.899586167448854607e-04,-3.548712496140411180e-04
5.200743069448414046e-10,-9.004920378284083987e-04,9.166882100820940575e-05
5.400771649042583380e-10,-8.834423543270569692e-04,4.985923435068687418e-04
5.600800228636752714e-10,-8.441387321804170183e-04,8.425568958183556403e-04
5.800828808230923081e-10,-7.886351390545973594e-04,1.103809952187618550e-03
6.000857387825092415e-10,-7.233429510668353945e-04,1.267235656785528760e-03
6.200885967419262782e-10,-6.546629043627087176e-04,1.323147598572711791e-03
6.400914547013432116e-10,-5.886357692151353857e-04,1.267785421771944632e-03
6.600943126607601449e-10,-5.306294642223915569e-04,1.103489372259112240e-03
6.800971706201771817e-10,-4.850777707807763265e-04,8.385445457167160516e-04
7.001000285795941150e-10,-4.552825156206452431e-04,4.867046870527459886e-04
7.201028865390111518e-10,-4.432872602653123396e-04,6.642288811462563258e-05
7.401057444984280852e-10,-4.498263936392522290e-04,-4.001675284279138860e-04
7.601086024578450185e-10,-4.743493021182110855e-04,-8.884651492416409217e-04
7.801114604172620553e-10,-5.151152228378326221e-04,-1.372738526100419822e-03
8.001143183766789886e-10,-5.693506893388191421e-04,-1.827516468173880689e-03
8.201171763360960254e-10,-6.334583456727273590e-04,-2.228954422556313295e-03
8.401200342955129587e-10,-7.032634917060351333e-04,-2.556102549820460628e-03
8.601228922549298921e-10,-7.742831402748237253e-04,-2.792006966284691239e-03
8.801257502143469288e-10,-8.420016785995818997e-04,-2.924585254871583419e-03
9.001286081737638622e-10,-9.021374430486961589e-04,-2.947230187276546169e-03
9.201314661331808990e-10,-9.508855982315435676e-04,-2.859110918887890034e-03
9.401343240925978323e-10,-9.851245715267640483e-04,-2.665157845582604400e-03
9.601371820520148691e-10,-1.002575804353247543e-03,-2.375734892699069185e-03
9.801400400114316990e-10,-1.001909580720942083e-03,-2.006020253507289665e-03
1.000142897970848736e-09,-9.827929978555862648e-04,-1.575132543564269471e-03
1.020145755930265773e-09,-9.458795570307661866e-04,-1.105053102972090428e-03
1.040148613889682809e-09,-8.927431786926566873e-04,-6.194060033971075449e-04
1.060151471849099639e-09,-8.257624987039688131e-04,-1.421646138399098268e-04
1.080154329808516676e-09,-7.479639171810441474e-04,3.036430354941629809e-04
1.100157187767933713e-09,-6.628339128530887341e-04,6.971585387914009486e-04
1.120160045727350543e-09,-5.741125057452999090e-04,1.020780185550726254e-03
1.140162903686767579e-09,-4.855803922449495160e-04,1.261054345434678209e-03
1.160165761646184616e-09,-4.008521757336010551e-04,1.409324288224723378e-03
1.180168619605601446e-09,-3.231873025600161655e-04,1.462103670141989831e-03
1.200171477565018483e-09,-2.553288570297751426e-04,1.421157725491727390e-03
1.220174335524435520e-09,-1.993783752621124822e-04,1.293291798083521377e-03
1.240177193483852556e-09,-1.567124392611921578e-04,1.089863283009475823e-03
1.260180051443269386e-09,-1.279441620254059299e-04,8.260483960066078392e-04
1.280182909402686423e-09,-1.129299348269393173e-04,5.199085847375279528e-04
1.300185767362103460e-09,-1.108191422168238317e-04,1.913121026025140642e-04
1.320188625321520290e-09,-1.201421130081398495e-04,-1.392262998857070311e-04
1.340191483280937327e-09,-1.389295027192637166e-04,-4.517208373318919927e-04
1.360194341240354363e-09,-1.648547055593624854e-04,-7.278386390500296566e-04
1.380197199199771400e-09,-1.953898515892835694e-04,-9.519093732548422051e-04
1.400200057159188230e-09,-2.279655016503132796e-04,-1.111765115215707219e-03
1.420202915118605267e-09,-2.601243166562890586e-04,-1.199365477507585535e-03
1.440205773078022304e-09,-2.896597202119203206e-04,-1.211175902565942005e-03
1.460208631037439134e-09,-3.147318319019007252e-04,-1.148281566488972829e-03
1.480211488996856170e-09,-3.339546315377279508e-04,-1.016234703983770775e-03
1.500214346956273207e-09,-3.464503077826871320e-04,-8.246484454225571107e-04
1.520217204915690037e-09,-3.518689180126751814e-04,-5.865645803324535642e-04
1.540220062875107074e-09,-3.503737027588183840e-04,-3.176352143814089235e-04
1.560222920834524111e-09,-3.425945213986239220e-04,-3.516836747550722379e-05
1.580225778793941147e-09,-3.295537788825657105e-04,2.429053817170424346e-04
1.600228636753357977e-09,-3.125707857711247325e-04,4.990844340229908405e-04
1.620231494712775014e-09,-2.931516481469590763e-04,7.173050152394139017e-04
1.640234352672192051e-09,-2.728724601111994245e-04,8.838498691043002739e-04
1.660237210631608881e-09,-2.532637402448406215e-04,9.881060303631359308e-04
1.680240068591025917e-09,-2.357037170044092445e-04,1.023130447577298490e-03
1.700242926550442954e-09,-2.213272598012388213e-04,9.859940149066644642e-04
1.720245784509859784e-09,-2.109560339741329866e-04,8.778878979490603151e-04
1.740248642469276821e-09,-2.050539143930042024e-04,7.039901036844053951e-04
1.760251500428693858e-09,-2.037099276355980261e-04,4.731042181672625376e-04
1.780254358388110894e-09,-2.066491217327564363e-04,1.970953030291997920e-04
1.800257216347527724e-09,-2.132699048731650658e-04,-1.098406484587352409e-04
1.820260074306944761e-09,-2.227046666497727663e-04,-4.320281879487319269e-04
1.840262932266361798e-09,-2.338990037742748427e-04,-7.532330105434583215e-04
1.860265790225778628e-09,-2.457037066296274266e-04,-1.057596696433755340e-03
1.880268648185195665e-09,-2.569728918851038623e-04,-1.330530725079187137e-03
1.900271506144612495e-09,-2.666613325152446820e-04,-1.559518223183122779e-03
1.920274364104029738e-09,-2.739141551082953960e-04,-1.734778220777067823e-03
1.940277222063446568e-09,-2.781426322798701109e-04,-1.849756068940685552e-03
1.960280080022863398e-09,-2.790807552730214971e-04,-1.901414556753493060e-03
1.980282937982280642e-09,-2.768185641732543020e-04,-1.890312481470827078e-03
2.000285795941697472e-09,-2.718097563744146790e-04,-1.820470232071551026e-03
2.020288653901114715e-09,-2.648527891863274985e-04,-1.699034574501507005e-03
2.040291511860531545e-09,-2.570464325641083712e-04,-1.535766530149653168e-03
2.060294369819948375e-09,-2.497224038645673504e-04,-1.342386335242826438e-03
2.080297227779365619e-09,-2.443592241564361794e-04,-1.131817380539235345e-03
2.100300085738782449e-09,-2.424826819175990755e-04,-9.173763183761596577e-04
2.120302943698199279e-09,-2.455591985902110192e-04,-7.119589105784534079e-04
2.140305801657616522e-09,-2.548889062079109469e-04,-5.272705757040135801e-04
2.160308659617033352e-09,-2.715053392102130970e-04,-3.731470580795143935e-04
2.180311517576450182e-09,-2.960883056169864858e-04,-2.570044383067093081e-04
2.200314375535867426e-09,-3.288957579925655796e-04,-1.834492460047667129e-04
2.220317233495284255e-09,-3.697193777137501580e-04,-1.540692609574747639e-04
2.240320091454701085e-09,-4.178671842742856524e-04,-1.674143348161207987e-04
2.260322949414118329e-09,-4.721748695203279280e-04,-2.191649247342146759e-04
2.280325807373535159e-09,-5.310458319575438266e-04,-3.024747094786058607e-04
2.300328665332951989e-09,-5.925181522077911786e-04,-4.084633356846840112e-04
2.320331523292369232e-09,-6.543551112056636204e-04,-5.268266257955082823e-04
2.340334381251786062e-09,-7.141544058085253941e-04,-6.465249735348854027e-04
2.360337239211202892e-09,-7.694700484977855031e-04,-7.565065269456584373e-04
2.380340097170620136e-09,-8.179401184425338488e-04,-8.464203275503299215e-04
2.400342955130036966e-09,-8.574131093537217278e-04,-9.072758854851770745e-04
2.420345813089454209e-09,-8.860656207865229977e-04,-9.320096059701554834e-04
2.440348671048871039e-09,-9.025045645148528769e-04,-9.159247659119646367e-04
2.460351529008287869e-09,-9.058478822044247359e-04,-8.569799554520457236e-04
2.480354386967705113e-09,-8.957789475063983884e-04,-7.559105204033077317e-04
2.500357244927121943e-09,-8.725712871536843397e-04,-6.161779616650947576e-04
2.520360102886538773e-09,-8.370819175745648766e-04,-4.437528199888741130e-04
2.540362960845956016e-09,-7.907133604220044874e-04,-2.467466512043956363e-04
2.560365818805372846e-09,-7.353461708635057473e-04,-3.491766928806196792e-05
2.580368676764789676e-09,-6.732454850873965165e-04,1.809180309336803319e-04
2.600371534724206920e-09,-6.069465726647484387e-04,3.895324891966252083e-04
2.620374392683623750e-09,-5.391255808203880952e-04,5.799490385474783197e-04
2.640377250643040580e-09,-4.724625129782785522e-04,7.420821033895246173e-04
2.660380108602457823e-09,-4.095039446472483087e-04,8.673152163461720016e-04
2.680382966561874653e-09,-3.525330197745543161e-04,9.489832460470488690e-04
2.700385824521291483e-09,-3.034538879339395063e-04,9.827312642828271022e-04
2.720388682480708727e-09,-2.636969587978255352e-04,9.667305147924723854e-04
2.740391540440125557e-09,-2.341502094394913027e-04,9.017410576486691075e-04
2.760394398399542800e-09,-2.151203461972124858e-04,7.910202730880854828e-04
2.780397256358959630e-09,-2.063259763860519934e-04,6.400859134271434745e-04
2.800400114318376460e-09,-2.069231779702033233e-04,4.563512022668806756e-04
2.820402972277793704e-09,-2.155620657424945448e-04,2.486570579044623678e-04
2.840405830237210534e-09,-2.304712398506455801e-04,2.673240758835183722e-05
2.860408688196627364e-09,-2.495654613118747540e-04,-1.993825832543470104e-04
2.880411546156044607e-09,-2.705706142966584965e-04,-4.199139304649484195e-04
2.900414404115461437e-09,-2.911590568136735932e-04,-6.258961658564744139e-04
2.920417262074878267e-09,-3.090878821137101919e-04,-8.096467957013412080e-04
2.940420120034295511e-09,-3.223324437679733127e-04,-9.651450565097085231e-04
2.960422977993712341e-09,-3.292077464929375405e-04,-1.088293788722592605e-03
2.980425835953129171e-09,-3.284709580064901408e-04,-1.177051134979632211e-03
3.000428693912546414e-09,-3.193993181407276251e-04,-1.231427377847110153e-03
3.020431551871963244e-09,-3.018390538788279752e-04,-1.253351005260810655e-03
3.040434409831380074e-09,-2.762224800265164872e-04,-1.246416468561646921e-03
3.060437267790797318e-09,-2.435521893599577696e-04,-1.215533546661744279e-03
3.080440125750214148e-09,-2.053530198996970403e-04,-1.166504283358441377e-03
3.100442983709630978e-09,-1.635942342229712110e-04,-1.105557748984229956e-03
3.120445841669048221e-09,-1.205859626165089088e-04,-1.038875134424147462e-03
3.140448699628465051e-09,-7.885536197217570627e-05,-9.721377886996757523e-04
3.160451557587882295e-09,-4.100905121234639554e-05,-9.101287733111640844e-04
3.180454415547299125e-09,-9.589143156693313060e-06,-8.564144770272048499e-04
3.200457273506715955e-09,1.306943754771595429e-05,-8.131270903908011495e-04
3.220460131466133198e-09,2.497269930784361763e-05,-7.808616650503436701e-04
3.240462989425550028e-09,2.458518393822232886e-05,-7.586935478300897316e-04
3.260465847384966858e-09,1.092503990765883708e-05,-7.443137052179800688e-04
3.280468705344384102e-09,-1.636865264049517781e-05,-7.342713824052957876e-04
3.300471563303800931e-09,-5.700008981409534592e-05,-7.243061990188317699e-04
3.320474421263217761e-09,-1.100146340969088040e-04,-7.097456495846989804e-04
3.340477279222635005e-09,-1.738307873030314245e-04,-6.859394499747199130e-04
3.360480137182051835e-09,-2.463048766045056507e-04,-6.486995467298346677e-04
3.380482995141468665e-09,-3.248253837903169582e-04,-5.947140563748342561e-04
3.400485853100885908e-09,-4.064323060899746294e-04,-5.219049649233366631e-04
3.420488711060302738e-09,-4.879556326503923461e-04,-4.297029958206429194e-04
3.440491569019719568e-09,-5.661660207397815284e-04,-3.192184197596344597e-04
3.460494426979136812e-09,-6.379301106023820564e-04,-1.932933889059300640e-04
3.480497284938553642e-09,-7.003626597404289007e-04,-5.642919429064356240e-05
3.500500142897970885e-09,-7.509678183862370958e-04,8.540983414821688431e-05
3.520503000857387715e-09,-7.877623996988752453e-04,2.251057766694692644e-04
3.540505858816804545e-09,-8.093748925304926215e-04,3.547921933422673135e-04
3.560508716776221789e-09,-8.151151748987433198e-04,4.663304353847259279e-04
3.580511574735638619e-09,-8.050113502078777876e-04,5.518276752725655805e-04
3.600514432695055449e-09,-7.798117708882857605e-04,6.041638360664976183e-04
3.620517290654472692e-09,-7.409520519342242990e-04,6.174933769527986109e-04
3.640520148613889522e-09,-6.904886219128983024e-04,5.876888365915987865e-04
3.660523006573306352e-09,-6.310020235969398053e-04,5.126961063568238322e-04
3.680525864532723596e-09,-5.654746771584822284e-04,3.927764248918829164e-04
3.700528722492140426e-09,-4.971490812477904033e-04,2.306167523952782445e-04
3.720531580451557256e-09,-4.293733890053068997e-04,3.129809085321043685e-05
3.740534438410974499e-09,-3.654419102476191275e-04,-1.978800221934017348e-04
3.760537296370391329e-09,-3.084383284707310465e-04,-4.477117411424643995e-04
3.780540154329808159e-09,-2.610892716379227606e-04,-7.075182158771272344e-04
3.800543012289224989e-09,-2.256353480267931657e-04,-9.656786594897776542e-04
3.820545870248642646e-09,-2.037258805427179286e-04,-1.210229558954288836e-03
3.840548728208059476e-09,-1.963423899821635987e-04,-1.429497857246091012e-03
3.860551586167476306e-09,-2.037544498003183307e-04,-1.612731438392649066e-03
3.880554444126893136e-09,-2.255099339169297512e-04,-1.750689971023990966e-03
3.900557302086309966e-09,-2.604599851268710230e-04,-1.836161141824761136e-03
3.920560160045726796e-09,-3.068173291250654989e-04,-1.864371428968726726e-03
3.940563018005144453e-09,-3.622449323800684532e-04,-1.833266585055548558e-03
3.960565875964561283e-09,-4.239705313040777407e-04,-1.743644558680080420e-03
3.980568733923978113e-09,-4.889213174644823452e-04,-1.599132226540814607e-03
4.000571591883394943e-09,-5.538721094167301916e-04,-1.406006508668246639e-03
4.020574449842811773e-09,-6.155997219831942438e-04,-1.172869636826100528e-03
4.040577307802229430e-09,-6.710359875414322571e-04,-9.101969782276640719e-04
4.060580165761646260e-09,-7.174120020401765756e-04,-6.297833549929161097e-04
4.080583023721063090e-09,-7.523866533210445779e-04,-3.441197824044516548e-04
4.100585881680479920e-09,-7.741533149893337420e-04,-6.573660944645908747e-05
4.120588739639896750e-09,-7.815197128069953370e-04,1.934490651226368810e-04
4.140591597599313580e-09,-7.739573349601746449e-04,4.227442236374249476e-04
4.160594455558731237e-09,-7.516182933880690602e-04,6.132141850420196310e-04
4.180597313518148067e-09,-7.153191731432721398e-04,7.581102122445105857e-04
4.200600171477564897e-09,-6.664930485468002503e-04,8.531669478958506074e-04
4.220603029436981727e-09,-6.071124164233548210e-04,8.967540993342294677e-04
4.240605887396398557e-09,-5.395872194434084409e-04,8.898756415253537139e-04
4.260608745355815387e-09,-4.666433357377930196e-04,8.360190128408788793e-04
4.280611603315233044e-09,-3.911878348993130220e-04,7.408657752157152450e-04
4.300614461274649874e-09,-3.161678998709470281e-04,6.118834443954725925e-04
4.320617319234066704e-09,-2.444305601595536865e-04,4.578251628628691615e-04
4.340620177193483534e-09,-1.785902633731642703e-04,2.881691626600990522e-04
4.360623035152900364e-09,-1.209108368265888241e-04,1.125332289768539722e-04
4.380625893112317194e-09,-7.320758459467248066e-05,-5.989956468974117843e-05
4.400628751071734851e-09,-3.677417045717913061e-05,-2.209087776302458609e-04
4.420631609031151681e-09,-1.233761091861893994e-05,-3.636864780001151844e-04
4.440634466990568511e-09,-4.321394782929750540e-08,-4.831826938838467800e-04
4.460637324949985341e-09,5.302743865086279040e-07,-5.763269875675854862e-04
4.480640182909402171e-09,-9.673370091843388617e-06,-6.421147931098183242e-04
4.500643040868819828e-09,-2.925797045950361843e-05,-6.815558975876276262e-04
4.520645898828236658e-09,-5.646699607520545567e-05,-6.974912804097734790e-04
4.540648756787653488e-09,-8.929226693696961053e-05,-6.942928935977234857e-04
4.560651614747070318e-09,-1.255932141937474438e-04,-6.774683404093595268e-04
4.580654472706487148e-09,-1.632200922330318124e-04,-6.531983256069756431e-04
4.600657330665903978e-09,-2.001343876102254428e-04,-6.278388368451892024e-04
4.620660188625321635e-09,-2.345198811514230758e-04,-6.074220186216973232e-04
4.640663046584738465e-09,-2.648783804511362192e-04,-5.971894963658884187e-04
4.660665904544155295e-09,-2.901050207849618337e-04,-6.011895174576863121e-04
4.680668762503572125e-09,-3.095391862055764083e-04,-6.219648565761555156e-04
4.700671620462988955e-09,-3.229884676679403081e-04,-6.603522724958523892e-04
4.720674478422405785e-09,-3.307245783229717734e-04,-7.154068012388769236e-04
4.740677336381823442e-09,-3.334517068301686847e-04,-7.844558113041011404e-04
4.760680194341240272e-09,-3.322493234304797825e-04,-8.632790707298672751e-04
4.780683052300657102e-09,-3.284928773810070926e-04,-9.464026441360082545e-04
4.800685910260073932e-09,-3.237570604566312755e-04,-1.027486796981339412e-03
4.820688768219490762e-09,-3.197072915343107105e-04,-1.099781730748399921e-03
4.840691626178908419e-09,-3.179857471793450462e-04,-1.156620321822944292e-03
4.860694484138325249e-09,-3.200985845075583996e-04,-1.191914395436232451e-03
4.880697342097742079e-09,-3.273109559312795363e-04,-1.200620612943691578e-03
4.900700200057158909e-09,-3.405560011273446337e-04,-1.179143824598583978e-03
4.920703058016575739e-09,-3.603632401547146287e-04,-1.125649636397179796e-03
4.940705915975992569e-09,-3.868107226844264262e-04,-1.040263717002291562e-03
4.960708773935410226e-09,-4.195039685270136876e-04,-9.251426654013226916e-04
4.980711631894827056e-09,-4.575832350268127491e-04,-7.844096083929878076e-04
5.000714489854243886e-09,-4.997590489182382857e-04,-6.239565652343542768e-04
5.020717347813660716e-09,-5.443743315450823251e-04,-4.511244340105141724e-04
5.040720205773077546e-09,-5.894899159977010908e-04,-2.742796491187187314e-04
5.060723063732494376e-09,-6.329888883533003364e-04,-1.023135962259719899e-04
5.080725921691912033e-09,-6.726940602651031772e-04,5.590371495200724785e-05
5.100728779651328863e-09,-7.064920615687910518e-04,1.920807932633850101e-04
5.120731637610745693e-09,-7.324570780569562411e-04,2.990364985012595599e-04
5.140734495570162523e-09,-7.489671807126538393e-04,3.711715659760918403e-04
5.160737353529579353e-09,-7.548065071394991334e-04,4.048482317182686748e-04
5.180740211488997010e-09,-7.492472506599429745e-04,3.986518555684998109e-04
