# Time (s),DUT (V),TEM (V)
0.000000000000000000e+00,-6.441634995145873593e-04,1.280733550530739964e-03
2.000400160064025567e-11,-7.814055072087713926e-04,6.709461327103964472e-04
4.000800320128051133e-11,-8.930412067837083375e-04,-3.029023684321751979e-05
6.001200480192076700e-11,-9.741317565777101372e-04,-7.916254267737840751e-04
8.001600640256102266e-11,-1.021630266589105543e-03,-1.578267096940492043e-03
1.000200080032012783e-10,-1.034533752706827880e-03,-2.353906270011226279e-03
1.200240096038415340e-10,-1.013913730915561549e-03,-3.082739062838886577e-03
1.400280112044817897e-10,-9.628239841367621215e-04,-3.731463853176061451e-03
1.600320128051220453e-10,-8.860913765322027532e-04,-4.271134889307422189e-03
1.800360144057623010e-10,-7.900025774733068469e-04,-4.678762303964092983e-03
2.000400160064025567e-10,-6.819057689405392912e-04,-4.938564087156026641e-03
2.200440176070428123e-10,-5.697514717043224803e-04,-5.042796821355327933e-03
2.400480192076830680e-10,-4.616002326069637454e-04,-4.992117563722867774e-03
2.600520208083233237e-10,-3.651268509057064237e-04,-4.795457594579680995e-03
2.800560224089635793e-10,-2.871509702579390561e-04,-4.469418101740291714e-03
3.000600240096038350e-10,-2.332222168073904247e-04,-4.037226448238490258e-03
3.200640256102440907e-10,-2.072847236127951884e-04,-3.527317746371362150e-03
3.400680272108843463e-10,-2.114410502033948103e-04,-2.971628467416857419e-03
3.600720288115246020e-10,-2.458294760655475321e-04,-2.403705445420434815e-03
3.800760304121648577e-10,-3.086217831577776406e-04,-1.856743912775589162e-03
4.000800320128051133e-10,-3.961413598728573990e-04,-1.361671555709172317e-03
4.200840336134453690e-10,-5.030941968036114305e-04,-9.453918456741109951e-04
4.400880352140856247e-10,-6.228985410540824894e-04,-6.292893665393172343e-04
4.600920368147258803e-10,-7.480930402879128931e-04,-4.280832077937258033e-04
4.800960384153661360e-10,-8.707984969215596662e-04,-3.490927880372333525e-04
5.001000400160063916e-10,-9.832051491637228396e-04,-3.919550677554948289e-04
5.201040416166466473e-10,-1.078055889964344262e-03,-5.488045773314571222e-04
5.401080432172869030e-10,-1.149096115647532407e-03,-8.048997141117908384e-04
5.601120448179271586e-10,-1.191462943479447249e-03,-1.139652052975010993e-03
5.801160464185674143e-10,-1.201990225588382179e-03,-1.527991579283331834e-03
6.001200480192076700e-10,-1.179410890744790087e-03,-1.941981213971098828e-03
6.201240496198479256e-10,-1.124444355820472530e-03,-2.352579906662324253e-03
6.401280512204881813e-10,-1.039763689487542336e-03,-2.731445731221899317e-03
6.601320528211284370e-10,-9.298444628075335991e-04,-3.052669247885197220e-03
6.801360544217686926e-10,-8.007043477903782666e-04,-3.294332905297238726e-03
7.001400560224089483e-10,-6.595490972119006897e-04,-3.439804044936357018e-03
7.201440576230492040e-10,-5.143461626635773215e-04,-3.478686360163856135e-03
7.401480592236894596e-10,-3.733515465913894564e-04,-3.407376344246550691e-03
7.601520608243297153e-10,-2.446182796220504980e-04,-3.229195969562460508e-03
7.801560624249699710e-10,-1.355160018257823857e-04,-2.954099034808838932e-03
8.001600640256102266e-10,-5.229044384182726668e-05,-2.597974682711500470e-03
8.201640656262504823e-10,3.108043825285236421e-07,-2.181595934783618282e-03
8.401680672268907380e-10,1.932383498533324703e-05,-1.729282239787921461e-03
8.601720688275309936e-10,3.748191851526952900e-06,-1.267361726002621787e-03
8.801760704281712493e-10,-4.538987989481087042e-05,-8.225301066325520997e-04
9.001800720288115050e-10,-1.250944882338312313e-04,-4.202083778099791425e-04
9.201840736294517606e-10,-2.305740583779693068e-04,-8.300031317075702532e-05
9.401880752300919129e-10,-3.555218518261029541e-04,1.706565676156306186e-04
9.601920768307322720e-10,-4.924863570542072598e-04,3.275658832761750051e-04
9.801960784313726310e-10,-6.333095487000863204e-04,3.805102797110306240e-04
1.000200080032012783e-09,-7.696070153459357369e-04,3.286109734700311605e-04
1.020204081632652936e-09,-8.932615165718943212e-04,1.772914129864554115e-04
1.040208083233293295e-09,-9.969007880671015929e-04,-6.214784304399683518e-05
1.060212084833933654e-09,-1.074331407458675291e-03,-3.733119973226079391e-04
1.080216086434573806e-09,-1.120903197528346894e-03,-7.357998408829818232e-04
1.100220088035213958e-09,-1.133782812575169323e-03,-1.126525470723633649e-03
1.120224089635854317e-09,-1.112120573714849361e-03,-1.521189148529089466e-03
1.140228091236494676e-09,-1.057100962317900116e-03,-1.895804249964484507e-03
1.160232092837134829e-09,-9.718740665594475820e-04,-2.228184796623363002e-03
1.180236094437774981e-09,-8.613722927770161783e-04,-2.499301542964881169e-03
1.200240096038415340e-09,-7.320233839835629851e-04,-2.694423734916930307e-03
1.220244097639055699e-09,-5.913768347746372299e-04,-2.803977844194896745e-03
1.240248099239695851e-09,-4.476658003050536499e-04,-2.824072885747813157e-03
1.260252100840336004e-09,-3.093302762148101605e-04,-2.756663172147339261e-03
1.280256102440976363e-09,-1.845294664648568206e-04,-2.609342204050506698e-03
1.300260104041616722e-09,-8.067173999960744924e-05,-2.394784409453463384e-03
1.320264105642256874e-09,-3.989387235992409046e-06,-2.129873198446714799e-03
1.340268107242897026e-09,4.081739454242767857e-05,-1.834572957823272111e-03
1.360272108843537385e-09,5.084705584902036437e-05,-1.530618007460542032e-03
1.380276110444177744e-09,2.515891413671886187e-05,-1.240102257731421579e-03
1.400280112044817897e-09,-3.517765072775308005e-05,-9.840587225042126025e-04
1.420284113645458049e-09,-1.271490656403348951e-04,-7.811178680247650311e-04
1.440288115246098408e-09,-2.459738286040706904e-04,-6.463280757021193194e-04
1.460292116846738767e-09,-3.853781217622894557e-04,-5.902106703176782923e-04
1.480296118447378919e-09,-5.379540565324975347e-04,-6.181067323968429282e-04
1.500300120048019072e-09,-6.955791990203506444e-04,-7.298542592652798675e-04
1.520304121648659431e-09,-8.498726869315158987e-04,-9.198133519851539250e-04
1.540308123249299790e-09,-9.926613941908331209e-04,-1.177235301257620196e-03
1.560312124849939942e-09,-1.116429320194817654e-03,-1.486950086037545048e-03
1.580316126450580094e-09,-1.214724676216167622e-03,-1.830327205938127744e-03
1.600320128051220453e-09,-1.282501917493293706e-03,-2.186448143094881121e-03
1.620324129651860812e-09,-1.316380044534720553e-03,-2.533416096820402964e-03
1.640328131252500965e-09,-1.314803614502400159e-03,-2.849720705429967076e-03
1.660332132853141117e-09,-1.278098747531250089e-03,-3.115572714531609708e-03
1.680336134453781476e-09,-1.208422628334585329e-03,-3.314126095148266574e-03
1.700340136054421835e-09,-1.109611217509493203e-03,-3.432512753460833631e-03
1.720344137655061987e-09,-9.869357314432841786e-04,-3.462627187439522043e-03
1.740348139255702140e-09,-8.467835832706055747e-04,-3.401614435409856894e-03
1.760352140856342499e-09,-6.962836055092437798e-04,-3.252033401572671043e-03
1.780356142456982858e-09,-5.428982673997426395e-04,-3.021687945966790041e-03
1.800360144057623010e-09,-3.940071032233125308e-04,-2.723138717304435415e-03
1.820364145658263162e-09,-2.565056138797229589e-04,-2.372928306140787043e-03
1.840368147258903521e-09,-1.364425129295331225e-04,-1.990569695893272886e-03
1.860372148859543880e-09,-3.871546616643586794e-05,-1.597362130965046274e-03
1.880376150460183826e-09,3.315839507095802067e-05,-1.215108557625033288e-03
1.900380152060824185e-09,7.718567173701976864e-05,-8.648141404257667086e-04
1.920384153661464544e-09,9.294745172080835836e-05,-5.654457279444019459e-04
1.940388155262104903e-09,8.155709156702099295e-05,-3.328275618891834596e-04
1.960392156862745262e-09,4.553004148903884104e-05,-1.787393263131577530e-04
1.980396158463385208e-09,-1.142413523768049976e-05,-1.102694362563603255e-04
2.000400160064025567e-09,-8.467297582570022481e-05,-1.294601281857719714e-04
2.020404161664665926e-09,-1.689775376751838408e-04,-2.332624859906669030e-04
2.040408163265305871e-09,-2.588337021950753406e-04,-4.138001840723353657e-04
2.060412164865946230e-09,-3.488170223163520180e-04,-6.589216675013550000e-04
2.080416166466586589e-09,-4.339100701033843854e-04,-9.530029025377208772e-04
2.100420168067226948e-09,-5.097928106702804846e-04,-1.277947799555922102e-03
2.120424169667867307e-09,-5.730792522302356057e-04,-1.614321844878228085e-03
2.140428171268507253e-09,-6.214873119819878727e-04,-1.942547062923446815e-03
2.160432172869147612e-09,-6.539332502017191403e-04,-2.244083583861757134e-03
2.180436174469787971e-09,-6.705468767571503338e-04,-2.502524943068410584e-03
2.200440176070427916e-09,-6.726087195543870977e-04,-2.704540620194234579e-03
2.220444177671068276e-09,-6.624151543945727217e-04,-2.840609788562641416e-03
2.240448179271708635e-09,-6.430818375662746824e-04,-2.905504089431717833e-03
2.260452180872348994e-09,-6.182993971806972910e-04,-2.898493564839870439e-03
2.280456182472989353e-09,-5.920580168867432130e-04,-2.823267625281544388e-03
2.300460184073629298e-09,-5.683591376404046594e-04,-2.687580963293343273e-03
2.320464185674269657e-09,-5.509329306630520113e-04,-2.502651512878889366e-03
2.340468187274910016e-09,-5.429794519808652442e-04,-2.282352823645581938e-03
2.360472188875549962e-09,-5.469495429421429838e-04,-2.042255625000549343e-03
2.380476190476190321e-09,-5.643787261181930619e-04,-1.798582146703114676e-03
2.400480192076830680e-09,-5.957837542184315355e-04,-1.567141419714676836e-03
2.420484193677471039e-09,-6.406273384400552277e-04,-1.362314053691645850e-03
2.440488195278111398e-09,-6.973521790832693055e-04,-1.196150902150468470e-03
2.460492196878751344e-09,-7.634810250006506286e-04,-1.077641886147563373e-03
2.480496198479391703e-09,-8.357753742709466728e-04,-1.012199609017219335e-03
2.500500200080032062e-09,-9.104418491588611804e-04,-1.001388031700116031e-03
2.520504201680672007e-09,-9.833724492849986801e-04,-1.042910329877446080e-03
2.540508203281312366e-09,-1.050402973020365428e-03,-1.130853165180429687e-03
2.560512204881952725e-09,-1.107573003603272346e-03,-1.256168056225777504e-03
2.580516206482593084e-09,-1.151371022958085077e-03,-1.407355383690141832e-03
2.600520208083233443e-09,-1.178949415199137540e-03,-1.571303762764831354e-03
2.620524209683873389e-09,-1.188296261476305161e-03,-1.734227865052553321e-03
2.640528211284513748e-09,-1.178353758618745336e-03,-1.882641863005794433e-03
2.660532212885154107e-09,-1.149076618946505337e-03,-2.004303853703696091e-03
2.680536214485794052e-09,-1.101427696210010090e-03,-2.089068982537681772e-03
2.700540216086434412e-09,-1.037312082063987203e-03,-2.129595351908657348e-03
2.720544217687074771e-09,-9.594547746292971142e-04,-2.121856732353815268e-03
2.740548219287715130e-09,-8.712304941001344696e-04,-2.065428936043929228e-03
2.760552220888355489e-09,-7.764570963190980252e-04,-1.963531626230775266e-03
2.780556222488995434e-09,-6.791661409106270614e-04,-1.822823354662271664e-03
2.800560224089635793e-09,-5.833653842635342637e-04,-1.652963710741287137e-03
2.820564225690276152e-09,-4.928082258873591262e-04,-1.465971600436510782e-03
2.840568227290916098e-09,-4.107844373408020035e-04,-1.275421884857872628e-03
2.860572228891556457e-09,-3.399449046600292986e-04,-1.095533060115849678e-03
2.880576230492196816e-09,-2.821707328154000947e-04,-9.402056931654727756e-04
2.900580232092837175e-09,-2.384940571966836793e-04,-8.220745047351317317e-04
2.920584233693477534e-09,-2.090744826917248717e-04,-7.516361192309829135e-04
2.940588235294117480e-09,-1.932314498466992589e-04,-7.365096499046932046e-04
2.960592236894757839e-09,-1.895292436350940000e-04,-7.808787755869983117e-04
2.980596238495398198e-09,-1.959080417992563122e-04,-8.851523443973954202e-04
3.000600240096038143e-09,-2.098515549177552137e-04,-1.045866557163964818e-03
3.020604241696678502e-09,-2.285796147139589833e-04,-1.255836333525426436e-03
3.040608243297318861e-09,-2.492526523703393810e-04,-1.504547531983774699e-03
3.060612244897959220e-09,-2.691744548934019805e-04,-1.778766294461830554e-03
3.080616246498599579e-09,-2.859799189620785328e-04,-2.063327892816347979e-03
3.100620248099239525e-09,-2.977957053205149964e-04,-2.342055947965831272e-03
3.120624249699879884e-09,-3.033636455899150933e-04,-2.598754497460318592e-03
3.140628251300520243e-09,-3.021193323156343732e-04,-2.818210631716894319e-03
3.160632252901160188e-09,-2.942213582471918951e-04,-2.987144599043190223e-03
3.180636254501800547e-09,-2.805299611104449843e-04,-3.095047442290276094e-03
3.200640256102440907e-09,-2.625371602143439318e-04,-3.134853171648224659e-03
3.220644257703081266e-09,-2.422536257244361320e-04,-3.103402757282024312e-03
3.240648259303721625e-09,-2.220602985676705852e-04,-3.001670191659706888e-03
3.260652260904361570e-09,-2.045350033958825801e-04,-2.834735706447749810e-03
3.280656262505001929e-09,-1.922658309458561256e-04,-2.611506998993537616e-03
3.300660264105642288e-09,-1.876638175227943563e-04,-2.344205038274173574e-03
3.320664265706282234e-09,-1.927873776006161217e-04,-2.047645695046838507e-03
3.340668267306922593e-09,-2.091900635655899877e-04,-1.738361158513859490e-03
3.360672268907562952e-09,-2.378015994760328830e-04,-1.433615069597282210e-03
3.380676270508203311e-09,-2.788498759127685449e-04,-1.150371900423918445e-03
3.400680272108843670e-09,-3.318288529217938427e-04,-9.042839346122362107e-04
3.420684273709483615e-09,-3.955142797392666035e-04,-7.087580841877715336e-04
3.440688275310123975e-09,-4.680260031639143017e-04,-5.741597940336423071e-04
3.460692276910764334e-09,-5.469326054982084039e-04,-5.072027524928280316e-04
3.480696278511404279e-09,-6.293913837694366719e-04,-5.105615863321881845e-04
3.500700280112044638e-09,-7.123144292099722755e-04,-5.827308950460080659e-04
3.520704281712684997e-09,-7.925499322541521615e-04,-7.181387388244287210e-04
3.540708283313325356e-09,-8.670669249553697791e-04,-9.075069874519459297e-04
3.560712284913965715e-09,-9.331315336874432178e-04,-1.138435740921241168e-03
3.580716286514605661e-09,-9.884634536520147969e-04,-1.396175288586840556e-03
3.600720288115246020e-09,-1.031362726020036051e-03,-1.664537630557212352e-03
3.620724289715886379e-09,-1.060798904382616488e-03,-1.926891144916577023e-03
3.640728291316526324e-09,-1.076457204794497831e-03,-2.167177060188337986e-03
3.660732292917166683e-09,-1.078739076573827140e-03,-2.370885276642317220e-03
3.680736294517807043e-09,-1.068717621934004791e-03,-2.525929827326430128e-03
3.700740296118447402e-09,-1.048051235705335605e-03,-2.623370694635561613e-03
3.720744297719087761e-09,-1.018861540283369938e-03,-2.657938387850263505e-03
3.740748299319727706e-09,-9.835839805123894938e-04,-2.628330027559192678e-03
3.760752300920367652e-09,-9.448011712803685734e-04,-2.537259898641838936e-03
3.780756302521008424e-09,-9.050701471794835593e-04,-2.391262636167487948e-03
3.800760304121648370e-09,-8.667549828491013294e-04,-2.200262452762557185e-03
3.820764305722289142e-09,-8.318758169801683446e-04,-1.976936158322285288e-03
3.840768307322929088e-09,-8.019841540226375779e-04,-1.735910280607984996e-03
3.860772308923569033e-09,-7.780725139608007717e-04,-1.492842600632837170e-03
3.880776310524209806e-09,-7.605241723763168319e-04,-1.263445264381544628e-03
3.900780312124849751e-09,-7.491060344663987361e-04,-1.062509915863367677e-03
3.920784313725490524e-09,-7.430047955019049256e-04,-9.029948324178051038e-04
3.940788315326130470e-09,-7.409036463155630305e-04,-7.952298814899838152e-04
3.960792316926770415e-09,-7.410940755371665583e-04,-7.462875374996175062e-04
3.980796318527411188e-09,-7.416149777047616925e-04,-7.595576868969025359e-04
4.000800320128051133e-09,-7.404094514175674213e-04,-8.345511765562648333e-04
4.020804321728691079e-09,-7.354884838810893475e-04,-9.669428289295580641e-04
4.040808323329331851e-09,-7.250902455372755821e-04,-1.148849845820715081e-03
4.060812324929971797e-09,-7.078239924530819582e-04,-1.369327069836711762e-03
4.080816326530611742e-09,-6.827885776971311625e-04,-1.615047359494814223e-03
4.100820328131252515e-09,-6.496572415682394692e-04,-1.871124168848935752e-03
4.120824329731892460e-09,-6.087225764749234786e-04,-2.122024981185748234e-03
4.140828331332533233e-09,-5.608982013820870000e-04,-2.352519031197996841e-03
4.160832332933173179e-09,-5.076765618410475182e-04,-2.548601059963920279e-03
4.180836334533813124e-09,-4.510452074298498424e-04,-2.698334760292593355e-03
4.200840336134453897e-09,-3.933666976387081697e-04,-2.792564940862670743e-03
4.220844337735093842e-09,-3.372297667864552193e-04,-2.825455907127670009e-03
4.240848339335734615e-09,-2.852813754289955850e-04,-2.794824576832463311e-03
4.260852340936374560e-09,-2.400506574415484475e-04,-2.702249715906168432e-03
4.280856342537014506e-09,-2.037764451484515695e-04,-2.552952585108317091e-03
4.300860344137655278e-09,-1.782499713452364025e-04,-2.355458359944635240e-03
4.320864345738295224e-09,-1.646835070019672599e-04,-2.121061053592949563e-03
4.340868347338935169e-09,-1.636141455640837859e-04,-1.863126513482838385e-03
4.360872348939575942e-09,-1.748497833454653498e-04,-1.596277657093493662e-03
4.380876350540215887e-09,-1.974617045069726017e-04,-1.335512887565367844e-03
4.400880352140855833e-09,-2.298252238190680319e-04,-1.095312191248256142e-03
4.420884353741496606e-09,-2.697067570364025148e-04,-8.887855770520248794e-04
4.440888355342136551e-09,-3.143926726861880918e-04,-7.269152946419619402e-04
4.460892356942777324e-09,-3.608525226825902909e-04,-6.179368985735676865e-04
4.480896358543417269e-09,-4.059269294298198123e-04,-5.668951357017499530e-04
4.500900360144057215e-09,-4.465286744655945581e-04,-5.753994164535017677e-04
4.520904361744697987e-09,-4.798445026467252901e-04,-6.415910066647700308e-04
4.540908363345337933e-09,-5.035248974131314222e-04,-7.603208464336436460e-04
4.560912364945978705e-09,-5.158496198020630537e-04,-9.235238967192013759e-04
4.580916366546618651e-09,-5.158581100161554805e-04,-1.120763941976807201e-03
4.600920368147258596e-09,-5.034358507463727568e-04,-1.339912574123829385e-03
4.620924369747899369e-09,-4.793503677577534185e-04,-1.567918267682430868e-03
4.640928371348539315e-09,-4.452335407097760640e-04,-1.791616490401219848e-03
4.660932372949179260e-09,-4.035101341639216622e-04,-1.998529957033396733e-03
4.680936374549820033e-09,-3.572757378908324177e-04,-2.177609506072620063e-03
4.700940376150459978e-09,-3.101304260677833092e-04,-2.319870537561584574e-03
4.720944377751099924e-09,-2.659772147761113700e-04,-2.418887179214293352e-03
4.740948379351740696e-09,-2.287966451305894350e-04,-2.471115861432425249e-03
4.760952380952380642e-09,-2.024104054814937406e-04,-2.476031153755590790e-03
4.780956382553021414e-09,-1.902477304739242378e-04,-2.436068821971422351e-03
4.800960384153661360e-09,-1.951283235155130773e-04,-2.356383330895399711e-03
4.820964385754301305e-09,-2.190747380514990227e-04,-2.244438664797528300e-03
4.840968387354942078e-09,-2.631655673827457045e-04,-2.109461634582239162e-03
4.860972388955582023e-09,-3.274385249673779363e-04,-1.961795149821113967e-03
4.880976390556222796e-09,-4.108496809141220390e-04,-1.812194748613803370e-03
4.900980392156862742e-09,-5.112919225294324920e-04,-1.671114656260400426e-03
4.920984393757502687e-09,-6.256723170841529567e-04,-1.548029625682925204e-03
4.940988395358143460e-09,-7.500446745484334442e-04,-1.450835831380627248e-03
4.960992396958783405e-09,-8.797904371726256601e-04,-1.385368365819504999e-03
4.980996398559423351e-09,-1.009838248736373610e-03,-1.355064816758707984e-03
5.001000400160064123e-09,-1.134910342027725411e-03,-1.360794526697175046e-03
5.021004401760704069e-09,-1.249782357578039941e-03,-1.400862102793050228e-03
5.041008403361344014e-09,-1.349542457112455109e-03,-1.471182277159275697e-03
5.061012404961984787e-09,-1.429835662086565221e-03,-1.565612055327748756e-03
5.081016406562624732e-09,-1.487080222666236793e-03,-1.676415951449634033e-03
5.101020408163265505e-09,-1.518644449077213984e-03,-1.794831638017675137e-03
5.121024409763905450e-09,-1.522974714571841224e-03,-1.911697069381356525e-03
5.141028411364545396e-09,-1.499668128579827999e-03,-2.018096460776121290e-03
5.161032412965186169e-09,-1.449486511941261782e-03,-2.105981637621892610e-03
