# Time (s),DUT (V),TEM (V)
0.000000000000000000e+00,-2.162029208312931782e-03,1.640475460674673501e-03
2.000400160064025567e-11,-2.228011282648101766e-03,1.194748433198350272e-03
4.000800320128051133e-11,-2.248378796894677945e-03,7.288485997527115092e-04
6.001200480192076700e-11,-2.223362353986227478e-03,2.684307731017376332e-04
8.001600640256102266e-11,-2.154952904885827636e-03,-1.610407805438676210e-04
1.000200080032012783e-10,-2.046776831568444029e-03,-5.357433313386930109e-04
1.200240096038415340e-10,-1.903897055010802001e-03,-8.348348475991449608e-04
1.400280112044817897e-10,-1.732551557544473623e-03,-1.041606303185629856e-03
1.600320128051220453e-10,-1.539843636289835432e-03,-1.144383859040394927e-03
1.800360144057623010e-10,-1.333400326390022208e-03,-1.137132888442637067e-03
2.000400160064025567e-10,-1.121016654371565033e-03,-1.019733618811733073e-03
2.200440176070428123e-10,-9.103036582848047066e-04,-7.979174668755022182e-04
2.400480192076830680e-10,-7.083574489934145587e-04,-4.828728126130199722e-04
2.600520208083233237e-10,-5.214650428858979940e-04,-9.054784691906500160e-05
2.800560224089635793e-10,-3.548603731516257833e-04,3.593048460702823166e-04
3.000600240096038350e-10,-2.125409267861663601e-04,8.442831113556164939e-04
3.200640256102440907e-10,-9.715203066822731051e-05,1.340620002366442812e-03
3.400680272108843463e-10,-9.942116109561260077e-06,1.824522660663425088e-03
3.600720288115246020e-10,4.921146933639965329e-05,2.273487524369692449e-03
3.800760304121648577e-10,8.171015944031240880e-05,2.667516720901922777e-03
4.000800320128051133e-10,9.008273373910129277e-05,2.990167452307394835e-03
4.200840336134453690e-10,7.778491584196223088e-05,3.229376992920314927e-03
4.400880352140856247e-10,4.896235490235712596e-05,3.378019902906892382e-03
4.600920368147258803e-10,8.190796573939440595e-06,3.434170354925083959e-03
4.800960384153661360e-10,-3.979207460762143296e-05,3.401060088360477809e-03
5.001000400160063916e-10,-9.034875734910286101e-05,3.286740396108375501e-03
5.201040416166466473e-10,-1.391845361798580685e-04,3.103473660804099196e-03
5.401080432172869030e-10,-1.825586506914828554e-04,2.866895299243450712e-03
5.601120448179271586e-10,-2.174542707530776817e-04,2.594999671852630998e-03
5.801160464185674143e-10,-2.417001170394595516e-04,2.307012862621614108e-03
6.001200480192076700e-10,-2.540394569252438011e-04,2.022220735215437496e-03
6.201240496198479256e-10,-2.541452199275881854e-04,1.758822058140610762e-03
6.401280512204881813e-10,-2.425829456428803287e-04,1.532873747275941998e-03
6.601320528211284370e-10,-2.207260396138207420e-04,1.357388623255609402e-03
6.801360544217686926e-10,-1.906302244375748442e-04,1.241635977027017064e-03
7.001400560224089483e-10,-1.548760144026771295e-04,1.190682329843825195e-03
7.201440576230492040e-10,-1.163894217600088075e-04,1.205194870784856691e-03
7.401480592236894596e-10,-7.825186524757376421e-05,1.281514068799537555e-03
7.601520608243297153e-10,-4.351037674584409121e-05,1.411985851262285638e-03
7.801560624249699710e-10,-1.499870615950171209e-05,1.585528473986211502e-03
8.001600640256102266e-10,4.821141853228833980e-06,1.788395671732041217e-03
8.201640656262504823e-10,1.398896228497684266e-05,2.005086650637872680e-03
8.401680672268907380e-10,1.114195972997050424e-05,2.219345581352243427e-03
8.601720688275309936e-10,-4.427918761148517241e-06,2.415188895678269804e-03
8.801760704281712493e-10,-3.275642990752420801e-05,2.577898084598554632e-03
9.001800720288115050e-10,-7.322843951540288399e-05,2.694918819563524390e-03
9.201840736294517606e-10,-1.246352847917864552e-04,2.756613827833666840e-03
9.401880752300919129e-10,-1.852631680428527632e-04,2.756826598127677577e-03
9.601920768307322720e-10,-2.530060911301497688e-04,2.693225051831735564e-03
9.801960784313726310e-10,-3.254957095849188992e-04,2.567408029549252558e-03
1.000200080032012783e-09,-4.002398379655292557e-04,2.384771966980118747e-03
1.020204081632652936e-09,-4.747611931925475480e-04,2.154149586151294336e-03
1.040208083233293295e-09,-5.467283100610581146e-04,1.887245943268488560e-03
1.060212084833933654e-09,-6.140713648415040095e-04,1.597908957053071006e-03
1.080216086434573806e-09,-6.750768359367369719e-04,1.301280910955732867e-03
1.100220088035213958e-09,-7.284564316439128256e-04,1.012883853281536153e-03
1.120224089635854317e-09,-7.733874258832997093e-04,7.476949691560480851e-04
1.140228091236494676e-09,-8.095233561783933465e-04,5.192677274350485182e-04
1.160232092837134829e-09,-8.369758447045157548e-04,3.389509815896355003e-04
1.180236094437774981e-09,-8.562699973891776473e-04,2.152514942783933507e-04
1.200240096038415340e-09,-8.682773223599993522e-04,1.533760103430462606e-04
1.220244097639055699e-09,-8.741313072092827489e-04,1.549776239851390481e-04
1.240248099239695851e-09,-8.751316436713949595e-04,2.181184883029735236e-04
1.260252100840336004e-09,-8.726435497944579935e-04,3.374476837239527766e-04
1.280256102440976363e-09,-8.679986988043967601e-04,5.045801016463314585e-04
1.300260104041616722e-09,-8.624039298818255957e-04,7.086502884450633123e-04
1.320264105642256874e-09,-8.568632210177079588e-04,9.370050362310623987e-04
1.340268107242897026e-09,-8.521174002085073933e-04,1.175990688038917745e-03
1.360272108843537385e-09,-8.486048273014412018e-04,1.411786084596400575e-03
1.380276110444177744e-09,-8.464448757107337611e-04,1.631230081749825448e-03
1.400280112044817897e-09,-8.454445689500264061e-04,1.822593688779929966e-03
1.420284113645458049e-09,-8.451272711535964171e-04,1.976251005512581760e-03
1.440288115246098408e-09,-8.447809796528406735e-04,2.085209977441574488e-03
1.460292116846738767e-09,-8.435225989611216729e-04,2.145473090182438512e-03
1.480296118447378919e-09,-8.403736542055526308e-04,2.156208904156646858e-03
1.500300120048019072e-09,-8.343422769797315380e-04,2.119727110734127666e-03
1.520304121648659431e-09,-8.245059980675970013e-04,2.041261844170705071e-03
1.540308123249299790e-09,-8.100899199620152603e-04,1.928579575086399002e-03
1.560312124849939942e-09,-7.905352080967815390e-04,1.791438344488282750e-03
1.580316126450580094e-09,-7.655535048699975680e-04,1.640933755661640918e-03
1.600320128051220453e-09,-7.351637897241578620e-04,1.488773523807759630e-03
1.620324129651860812e-09,-6.997093228586618620e-04,1.346526134007008197e-03
1.640328131252500965e-09,-6.598535506272676984e-04,1.224890085239054710e-03
1.660332132853141117e-09,-6.165551425000280212e-04,1.133028283941697311e-03
1.680336134453781476e-09,-5.710235963905213163e-04,1.078007549700775100e-03
1.700340136054421835e-09,-5.246580178524188742e-04,1.064376223878849177e-03
1.720344137655061987e-09,-4.789726828734439156e-04,1.093903984761587398e-03
1.740348139255702140e-09,-4.355137781301847465e-04,1.165497735853598471e-03
1.760352140856342499e-09,-3.957722345657189718e-04,1.275296487523128620e-03
1.780356142456982858e-09,-3.610978035989107241e-04,1.416937171213544918e-03
1.800360144057623010e-09,-3.326194605296072687e-04,1.581972978142613629e-03
1.820364145658263162e-09,-3.111768640796171875e-04,1.760416721856217486e-03
1.840368147258903521e-09,-2.972669779927795031e-04,1.941374422997058438e-03
1.860372148859543880e-09,-2.910091082197457241e-04,2.113729226228382337e-03
1.880376150460183826e-09,-2.921305775520752126e-04,2.266833164625655771e-03
1.900380152060824185e-09,-2.999741078484075571e-04,2.391164312099739158e-03
1.920384153661464544e-09,-3.135267730547268471e-04,2.478909474838036572e-03
1.940388155262104903e-09,-3.314691908767864706e-04,2.524437577008245472e-03
1.960392156862745262e-09,-3.522425023259441934e-04,2.524635959706570624e-03
1.980396158463385208e-09,-3.741297063430435799e-04,2.479090480104896143e-03
2.000400160064025567e-09,-3.953471229051460701e-04,2.390100023008523509e-03
2.020404161664665926e-09,-4.141411931260791253e-04,2.262526215310280402e-03
2.040408163265305871e-09,-4.288855167188317823e-04,2.103489140958719143e-03
2.060412164865946230e-09,-4.381729895959230207e-04,1.921929084170290051e-03
2.080416166466586589e-09,-4.408981366750017259e-04,1.728062230672448851e-03
2.100420168067226948e-09,-4.363252223492963041e-04,1.532764367364356428e-03
2.120424169667867307e-09,-4.241384357643714293e-04,1.346920591180672273e-03
2.140428171268507253e-09,-4.044713509094622923e-04,1.180780653800809262e-03
2.160432172869147612e-09,-3.779139044610548915e-04,1.043358761529067759e-03
2.180436174469787971e-09,-3.454962628435926351e-04,9.419134985808322790e-04
2.200440176070427916e-09,-3.086501062174189691e-04,8.815382678772385816e-04
2.220444177671068276e-09,-2.691489827862700410e-04,8.648855931213241064e-04
2.240448179271708635e-09,-2.290304262004865183e-04,8.920402496948142811e-04
2.260452180872348994e-09,-1.905034314592139667e-04,9.605470148322549622e-04
2.280456182472989353e-09,-1.558456077844119607e-04,1.065589416563775260e-03
2.300460184073629298e-09,-1.272948372382963424e-04,1.200306789965807988e-03
2.320464185674269657e-09,-1.069405431506546638e-04,1.356228764184915121e-03
2.340468187274910016e-09,-9.661970226861026632e-05,1.523799489532432112e-03
2.360472188875549962e-09,-9.782252049269213182e-05,1.692958866193148507e-03
2.380476190476190321e-09,-1.116122472879417255e-04,1.853745037852917157e-03
2.400480192076830680e-09,-1.385629522149432941e-04,1.996881619778626254e-03
2.420484193677471039e-09,-1.787182616496612935e-04,2.114314560629581338e-03
2.440488195278111398e-09,-2.315730952673279892e-04,2.199667074283825820e-03
2.460492196878751344e-09,-2.960793962518066852e-04,2.248586479509099862e-03
2.480496198479391703e-09,-3.706757655644769356e-04,2.258963698604979538e-03
2.500500200080032062e-09,-4.533398388373310081e-04,2.231014151221882586e-03
2.520504201680672007e-09,-5.416612328842211610e-04,2.167217337167266691e-03
2.540508203281312366e-09,-6.329319821093505388e-04,2.072121004721897038e-03
2.560512204881952725e-09,-7.242506222974351123e-04,1.952023925675943229e-03
2.580516206482593084e-09,-8.126354922707534857e-04,1.814558457860800025e-03
2.600520208083233443e-09,-8.951424361573138543e-04,1.668199848477132721e-03
2.620524209683873389e-09,-9.689819147714809474e-04,1.521733285069500931e-03
2.640528211284513748e-09,-1.031630578496376847e-03,1.383711812603011498e-03
2.660532212885154107e-09,-1.080932611147721783e-03,1.261938302879936184e-03
2.680536214485794052e-09,-1.115186610554166251e-03,1.163002710283169306e-03
2.700540216086434412e-09,-1.133214404687512677e-03,1.091902021882972494e-03
2.720544217687074771e-09,-1.134408982658925528e-03,1.051764868631323291e-03
2.740548219287715130e-09,-1.118759612578073322e-03,1.043696060817364589e-03
2.760552220888355489e-09,-1.086853183843064941e-03,1.066748770315740190e-03
2.780556222488995434e-09,-1.039851808188351368e-03,1.118024174764338432e-03
2.800560224089635793e-09,-9.794476994481183911e-04,1.192890590956571057e-03
2.820564225690276152e-09,-9.077972853190530069e-04,1.285306928870949723e-03
2.840568227290916098e-09,-8.274373470625541373e-04,1.388229123928241306e-03
2.860572228891556457e-09,-7.411867010322867062e-04,1.494073415289965236e-03
2.880576230492196816e-09,-6.520375007464969527e-04,1.595207205211573174e-03
2.900580232092837175e-09,-5.630406282437537893e-04,1.684436927045332086e-03
2.920584233693477534e-09,-4.771898444443059182e-04,1.755462922526819861e-03
2.940588235294117480e-09,-3.973093739175103311e-04,1.803273722415912016e-03
2.960592236894757839e-09,-3.259494116651947908e-04,1.824456168436597043e-03
2.980596238495398198e-09,-2.652936680476747919e-04,1.817403240754483394e-03
3.000600240096038143e-09,-2.170825300429797555e-04,1.782407915538395055e-03
3.020604241696678502e-09,-1.825547365796820686e-04,1.721638464970900485e-03
3.040608243297318861e-09,-1.624096723338281474e-04,1.638997888342919517e-03
3.060612244897959220e-09,-1.567915121795057946e-04,1.539877183125016279e-03
3.080616246498599579e-09,-1.652955344989069490e-04,1.430818506383478485e-03
3.100620248099239525e-09,-1.869960043491275948e-04,1.319109563932754827e-03
3.120624249699879884e-09,-2.204941455041527329e-04,1.212334490777517175e-03
3.140628251300520243e-09,-2.639839104055726761e-04,1.117908832194290832e-03
3.160632252901160188e-09,-3.153325526116877286e-04,1.042626879726207302e-03
3.180636254501800547e-09,-3.721724363628961616e-04,9.922485447972086928e-04
3.200640256102440907e-09,-4.320001054808193753e-04,9.711502532948940083e-04
3.220644257703081266e-09,-4.922783952734133576e-04,9.820602034232804849e-04
3.240648259303721625e-09,-5.505373151968011997e-04,1.025893017150857067e-03
3.260652260904361570e-09,-6.044695575876703197e-04,1.101692670393340703e-03
3.280656262505001929e-09,-6.520167917267824954e-04,1.206685991843264730e-03
3.300660264105642288e-09,-6.914433680499609781e-04,1.336442379748165390e-03
3.320664265706282234e-09,-7.213946626623700571e-04,1.485129101207631214e-03
3.340668267306922593e-09,-7.409380095026899893e-04,1.645845983261210680e-03
3.360672268907562952e-09,-7.495849637258718626e-04,1.811018802779865546e-03
3.380676270508203311e-09,-7.472944788749048091e-04,1.972827487760457806e-03
3.400680272108843670e-09,-7.344574241346222719e-04,2.123643527690137391e-03
3.420684273709483615e-09,-7.118636782624350109e-04,2.256450834587404950e-03
3.440688275310123975e-09,-6.806537771980871680e-04,2.365225682969404001e-03
3.460692276910764334e-09,-6.422577297484699044e-04,2.445254177174154692e-03
3.480696278511404279e-09,-5.983241219146833312e-04,2.493369754193136816e-03
3.500700280112044638e-09,-5.506429834127965668e-04,2.508098263850008086e-03
3.520704281712684997e-09,-5.010660750735513149e-04,2.489703855945333503e-03
3.540708283313325356e-09,-4.514282664433272828e-04,2.440134892135615869e-03
3.560712284913965715e-09,-4.034735107581045974e-04,2.362875023281862507e-03
3.580716286514605661e-09,-3.587885995234809029e-04,2.262710075852688088e-03
3.600720288115246020e-09,-3.187474090286216040e-04,2.145426150760543563e-03
3.620724289715886379e-09,-2.844677610345486924e-04,2.017458082845170579e-03
3.640728291316526324e-09,-2.567823401452604235e-04,1.885509933836254908e-03
3.660732292917166683e-09,-2.362243757782769241e-04,1.756170368638454004e-03
3.680736294517807043e-09,-2.230280444999923478e-04,1.635545550956583058e-03
3.700740296118447402e-09,-2.171428167270412785e-04,1.528930631555945304e-03
3.720744297719087761e-09,-2.182602970932528454e-04,1.440538113724907417e-03
3.740748299319727706e-09,-2.258515236835052277e-04,1.373297560539497733e-03
3.760752300920367652e-09,-2.392122265306687750e-04,1.328736510627819608e-03
3.780756302521008424e-09,-2.575132226231132619e-04,1.306947388500471086e-03
3.800760304121648370e-09,-2.798529580573603094e-04,1.306639950349069036e-03
3.820764305722289142e-09,-3.053092045150105857e-04,1.325273717769607064e-03
3.840768307322929088e-09,-3.329870749625006999e-04,1.359260224714239343e-03
3.860772308923569033e-09,-3.620608318834636847e-04,1.404221006692197996e-03
3.880776310524209806e-09,-3.918074020252567649e-04,1.455284314624024364e-03
3.900780312124849751e-09,-4.216300591697737764e-04,1.507401694476339076e-03
3.920784313725490524e-09,-4.510713597985522715e-04,1.555664922224525917e-03
3.940788315326130470e-09,-4.798150807224438926e-04,1.595604331234706363e-03
3.960792316926770415e-09,-5.076775757060211563e-04,1.623451251406656057e-03
3.980796318527411188e-09,-5.345896026617744622e-04,1.636349963759128326e-03
4.000800320128051133e-09,-5.605702388590906365e-04,1.632508069495441048e-03
4.020804321728691079e-09,-5.856949673567333385e-04,1.611278242606354986e-03
4.040808323329331851e-09,-6.100603576372211042e-04,1.573168713813015863e-03
4.060812324929971797e-09,-6.337479582726196102e-04,1.519784242817640062e-03
4.080816326530611742e-09,-6.567900584721040897e-04,1.453703502338473535e-03
4.100820328131252515e-09,-6.791398562692053248e-04,1.378302470318267491e-03
4.120824329731892460e-09,-7.006483003959665693e-04,1.297536392347777489e-03
4.140828331332533233e-09,-7.210494655075770122e-04,1.215694970838072930e-03
4.160832332933173179e-09,-7.399557989676663720e-04,1.137146555751097389e-03
4.180836334533813124e-09,-7.568639709324264525e-04,1.066087212735259814e-03
4.200840336134453897e-09,-7.711714019096494073e-04,1.006309652371484026e-03
4.220844337735093842e-09,-7.822028702838478790e-04,9.610052049563306805e-04
4.240848339335734615e-09,-7.892459544813508867e-04,9.326094599395129501e-04
4.260852340936374560e-09,-7.915934774390138290e-04,9.226990436740780495e-04
4.280856342537014506e-09,-7.885906286962648991e-04,9.319435013088488888e-04
4.300860344137655278e-09,-7.796840706684165373e-04,9.601126134901999919e-04
4.320864345738295224e-09,-7.644701128469470145e-04,1.006135952911416023e-03
4.340868347338935169e-09,-7.427389753777356675e-04,1.068208293150643912e-03
4.360872348939575942e-09,-7.145122676267401515e-04,1.143931818760516791e-03
4.380876350540215887e-09,-6.800710748884717001e-04,1.230484107919630268e-03
4.400880352140855833e-09,-6.399724653790162931e-04,1.324799675244047945e-03
4.420884353741496606e-09,-5.950527798469834248e-04,1.423752526227781536e-03
4.440888355342136551e-09,-5.464167200563681357e-04,1.524327683145633829e-03
4.460892356942777324e-09,-4.954119767571212203e-04,1.623770936741759973e-03
4.480896358543417269e-09,-4.435898952104735515e-04,1.719708049999551288e-03
4.500900360144057215e-09,-3.926534274230577453e-04,1.810227138988106587e-03
4.520904361744697987e-09,-3.443943254854510742e-04,1.893920799088668824e-03
4.540908363345337933e-09,-3.006221523748878362e-04,1.969887531926356721e-03
4.560912364945978705e-09,-2.630881918487906236e-04,2.037694952988821154e-03
4.580916366546618651e-09,-2.334076999713454901e-04,2.097309924619837184e-03
4.600920368147258596e-09,-2.129841369336071052e-04,2.149002987653248799e-03
4.620924369747899369e-09,-2.029390369773669315e-04,2.193236113903602146e-03
4.640928371348539315e-09,-2.040510131468617342e-04,2.230543769208639254e-03
4.660932372949179260e-09,-2.167070580743838001e-04,2.261417508619954688e-03
4.680936374549820033e-09,-2.408688066300628862e-04,2.286203818164550972e-03
4.700940376150459978e-09,-2.760557936263248534e-04,2.305023717957658830e-03
4.720944377751099924e-09,-3.213469993241223365e-04,2.317720842253478877e-03
4.740948379351740696e-09,-3.754011620734654673e-04,2.323842445710588671e-03
4.760952380952380642e-09,-4.364954894868601845e-04,2.322655214362103447e-03
4.780956382553021414e-09,-5.025815572453191070e-04,2.313195066169967170e-03
4.800960384153661360e-09,-5.713563878464607542e-04,2.294347497951577074e-03
4.820964385754301305e-09,-6.403459879723318298e-04,2.264952655302956194e-03
4.840968387354942078e-09,-7.069980262962588134e-04,2.223927334258678570e-03
4.860972388955582023e-09,-7.687798814596925965e-04,2.170394703325899659e-03
4.880976390556222796e-09,-8.232780037229549827e-04,2.103811760032952508e-03
4.900980392156862742e-09,-8.682944266857096915e-04,2.024084461146899525e-03
4.920984393757502687e-09,-9.019363423744232921e-04,1.931661096895118329e-03
4.940988395358143460e-09,-9.226949103068621694e-04,1.827595776096227649e-03
4.960992396958783405e-09,-9.295098970675730234e-04,1.713575765782671383e-03
4.980996398559423351e-09,-9.218173181293002607e-04,1.591908761713020301e-03
5.001000400160064123e-09,-8.995779522751422416e-04,1.465468800809089115e-03
5.021004401760704069e-09,-8.632853899198790308e-04,1.337602288593747009e-03
5.041008403361344014e-09,-8.139531250656410755e-04,1.211998321167112374e-03
5.061012404961984787e-09,-7.530810696203193381e-04,1.092529952599558983e-03
5.081016406562624732e-09,-6.826027209976254619e-04,9.830751304867693142e-04
5.101020408163265505e-09,-6.048150131758040643e-04,8.873275563251990534e-04
5.121024409763905450e-09,-5.222935943651661967e-04,8.086086196910337786e-04
5.141028411364545396e-09,-4.377968719250249731e-04,7.496917438113048955e-04
5.161032412965186169e-09,-3.541626232833938520e-04,7.126499483316439936e-04
5.181036414565826114e-09,-2.742012726411027952e-04,6.987362126891474758e-04
5.201040416166466887e-09,-2.005900662512299546e-04,7.083043847119895736e-04
5.221044417767106832e-09,-1.357723401776099177e-04,7.407760376916690780e-04
