# Time (s),DUT (V),TEM (V)
0.000000000000000000e+00,2.420189330188282802e-04,-1.298232422782067894e-03
2.000400160064025567e-11,3.423291703001162889e-04,-8.587596590611642133e-04
4.000800320128051133e-11,4.099125017611236050e-04,-3.377498043246891899e-04
6.001200480192076700e-11,4.431092329397554454e-04,2.403167122604735770e-04
8.001600640256102266e-11,4.417045271458573587e-04,8.489714520562503027e-04
1.000200080032012783e-10,4.069017253542132570e-04,1.461184200744010094e-03
1.200240096038415340e-10,3.412246969854255897e-04,2.050799881045092202e-03
1.400280112044817897e-10,2.483558998616646916e-04,2.593902775119341902e-03
1.600320128051220453e-10,1.329203064724413322e-04,3.070029790733417273e-03
1.800360144057623010e-10,2.282036327079139647e-07,3.463164261770032646e-03
2.000400160064025567e-10,-1.440080663595420416e-04,3.762455557341140740e-03
2.200440176070428123e-10,-2.939671949453340856e-04,3.962626718574024411e-03
2.400480192076830680e-10,-4.440053975379182490e-04,4.064051396159238175e-03
2.600520208083233237e-10,-5.889206332265971809e-04,4.072501352670322705e-03
2.800560224089635793e-10,-7.241805425348652814e-04,3.998585501082308272e-03
3.000600240096038350e-10,-8.461025441592679363e-04,3.856919681121459467e-03
3.200640256102440907e-10,-9.519776197846851725e-04,3.665082033737727951e-03
3.400680272108843463e-10,-1.040132847101655784e-03,3.442420992261684132e-03
3.600720288115246020e-10,-1.109931497404358352e-03,3.208790858905743830e-03
3.800760304121648577e-10,-1.161713266639609679e-03,2.983293232129574386e-03
4.000800320128051133e-10,-1.196680731121537973e-03,2.783101036976336987e-03
4.200840336134453690e-10,-1.216741201238969415e-03,2.622435725284877079e-03
4.400880352140856247e-10,-1.224315607220493197e-03,2.511757779032316399e-03
4.600920368147258803e-10,-1.222127748989971759e-03,2.457216648114026770e-03
4.800960384153661360e-10,-1.212988084016826829e-03,2.460389576957763575e-03
5.001000400160063916e-10,-1.199586172926651612e-03,2.518320472634086489e-03
5.201040416166466473e-10,-1.184304968034188789e-03,2.623851181855353220e-03
5.401080432172869030e-10,-1.169068384541083975e-03,2.766219437098703035e-03
5.601120448179271586e-10,-1.155231156990427872e-03,2.931881413498987551e-03
5.801160464185674143e-10,-1.143517015536766029e-03,3.105503299442477234e-03
6.001200480192076700e-10,-1.134007910082840496e-03,3.271056336981499179e-03
6.201240496198479256e-10,-1.126183577230087732e-03,3.412944017309633982e-03
6.401280512204881813e-10,-1.119007403401831241e-03,3.517088843256003031e-03
6.601320528211284370e-10,-1.111051498218073837e-03,3.571909336422608369e-03
6.801360544217686926e-10,-1.100651345654103013e-03,3.569125531635124193e-03
7.001400560224089483e-10,-1.086078505029338965e-03,3.504342562069465757e-03
7.201440576230492040e-10,-1.065718705976508810e-03,3.377376359756036235e-03
7.401480592236894596e-10,-1.038242388886175633e-03,3.192302058864407866e-03
7.601520608243297153e-10,-1.002755299657567128e-03,2.957223347682559102e-03
7.801560624249699710e-10,-9.589181160270022521e-04,2.683778663196024518e-03
8.001600640256102266e-10,-9.070261723604213042e-04,2.386416661314360622e-03
8.201640656262504823e-10,-8.480430253697507186e-04,2.081487803672575024e-03
8.401680672268907380e-10,-7.835846927899955483e-04,1.786210294818767370e-03
8.601720688275309936e-10,-7.158547027589672648e-04,1.517576290277232454e-03
8.801760704281712493e-10,-6.475334020799612808e-04,1.291267819380405562e-03
9.001800720288115050e-10,-5.816280750325295013e-04,1.120651030854150033e-03
9.201840736294517606e-10,-5.212931221728052227e-04,1.015912249525102078e-03
9.401880752300919129e-10,-4.696316672215567357e-04,9.833902701812833810e-04
9.601920768307322720e-10,-4.294913624335136462e-04,1.025146893300010352e-03
9.801960784313726310e-10,-4.032677562814681823e-04,1.138802716041565190e-03
1.000200080032012783e-09,-3.927283299257211405e-04,1.317648574814871739e-03
1.020204081632652936e-09,-3.988692120358466094e-04,1.551025832989124872e-03
1.040208083233293295e-09,-4.218147089301782439e-04,1.824951990071949125e-03
1.060212084833933654e-09,-4.607672512302269990e-04,2.122952892502976904e-03
1.080216086434573806e-09,-5.140123136128742741e-04,2.427050087265486544e-03
1.100220088035213958e-09,-5.789794973994410532e-04,2.718842357036612041e-03
1.120224089635854317e-09,-6.523574840700672355e-04,2.980614784470396548e-03
1.140228091236494676e-09,-7.302571867763091524e-04,3.196407149442717817e-03
1.160232092837134829e-09,-8.084143567164976240e-04,3.352976144211070736e-03
1.180236094437774981e-09,-8.824203337615896259e-04,3.440592613015299242e-03
1.200240096038415340e-09,-9.479677277853763157e-04,3.453625350994904246e-03
1.220244097639055699e-09,-1.001096700435845106e-03,3.390876277601110635e-03
1.240248099239695851e-09,-1.038427260553890282e-03,3.255647197594098170e-03
1.260252100840336004e-09,-1.057363611720022693e-03,3.055534916894123067e-03
1.280256102440976363e-09,-1.056258065319365608e-03,2.801968162767480217e-03
1.300260104041616722e-09,-1.034524272955612530e-03,2.509515536905531242e-03
1.320264105642256874e-09,-9.926924070117167445e-04,2.195007635598099447e-03
1.340268107242897026e-09,-9.324022576522670702e-04,1.876527653712179453e-03
1.360272108843537385e-09,-8.563338198894799051e-04,1.572332571421533858e-03
1.380276110444177744e-09,-7.680786001352697678e-04,1.299770941057366803e-03
1.400280112044817897e-09,-6.719583589866043923e-04,1.074263123726885288e-03
1.420284113645458049e-09,-5.728011165795000208e-04,9.084056029206505128e-04
1.440288115246098408e-09,-4.756867918154358767e-04,8.112530071915803999e-04
1.460292116846738767e-09,-3.856766739316069706e-04,7.878202200058972374e-04
1.480296118447378919e-09,-3.075419240378794044e-04,8.388331548230997447e-04
1.500300120048019072e-09,-2.455064147818559876e-04,9.607412939673969565e-04
1.520304121648659431e-09,-2.030184308784501747e-04,1.145988896954969411e-03
1.540308123249299790e-09,-1.825641181422272793e-04,1.383525882842276747e-03
1.560312124849939942e-09,-1.855331809638319327e-04,1.659524763811371902e-03
1.580316126450580094e-09,-2.121443298022830247e-04,1.958257551641302222e-03
1.600320128051220453e-09,-2.614345493658513713e-04,2.263077033863298507e-03
1.620324129651860812e-09,-3.313125982794425366e-04,2.557440795789363459e-03
1.640328131252500965e-09,-4.186734788327185330e-04,2.825914201753883248e-03
1.660332132853141117e-09,-5.195671475407322029e-04,3.055090356496622476e-03
1.680336134453781476e-09,-6.294116773910721305e-04,3.234370711665514146e-03
1.700340136054421835e-09,-7.432386092608849219e-04,3.356559091785481837e-03
1.720344137655061987e-09,-8.559564857042695034e-04,3.418233904522904182e-03
1.740348139255702140e-09,-9.626176435441254628e-04,3.419877411624298001e-03
1.760352140856342499e-09,-1.058673300938840897e-03,3.365756281529784857e-03
1.780356142456982858e-09,-1.140202805751463046e-03,3.263563262049648615e-03
1.800360144057623010e-09,-1.204104559033811975e-03,3.123844728862631460e-03
1.820364145658263162e-09,-1.248238485845347932e-03,2.959252158041574508e-03
1.840368147258903521e-09,-1.271512849350633478e-03,2.783666418422692072e-03
1.860372148859543880e-09,-1.273911514467794288e-03,2.611251517857310182e-03
1.880376150460183826e-09,-1.256461263976837084e-03,2.455498597557438829e-03
1.900380152060824185e-09,-1.221142243312383626e-03,2.328321306321475513e-03
1.920384153661464544e-09,-1.170747854040937773e-03,2.239260195214759584e-03
1.940388155262104903e-09,-1.108703239888777625e-03,2.194846684859087273e-03
1.960392156862745262e-09,-1.038853750006817457e-03,2.198166925923791294e-03
1.980396158463385208e-09,-9.652362956726938609e-04,2.248653146258692420e-03
2.000400160064025567e-09,-8.918472567665009388e-04,2.342115655559930208e-03
2.020404161664665926e-09,-8.224205097955715645e-04,2.471013463217756022e-03
2.040408163265305871e-09,-7.602282569608639906e-04,2.624946406014851043e-03
2.060412164865946230e-09,-7.079157014806371825e-04,2.791337715922758214e-03
2.080416166466586589e-09,-6.673783480793013230e-04,2.956263950134073188e-03
2.100420168067226948e-09,-6.396879562215809778e-04,3.105379897572104007e-03
2.120424169667867307e-09,-6.250701119862734755e-04,3.224880041040855891e-03
2.140428171268507253e-09,-6.229332037313353981e-04,3.302435760403086250e-03
2.160432172869147612e-09,-6.319454829103063288e-04,3.328048851996783571e-03
2.180436174469787971e-09,-6.501540531619509795e-04,3.294767020977066099e-03
2.200440176070427916e-09,-6.751372277687999390e-04,3.199215456675245841e-03
2.220444177671068276e-09,-7.041798682214554317e-04,3.041909899355406746e-03
2.240448179271708635e-09,-7.344601678362689019e-04,2.827330048732739493e-03
2.260452180872348994e-09,-7.632359335613908644e-04,2.563746918747056725e-03
2.280456182472989353e-09,-7.880187590003777691e-04,2.262812899073928484e-03
2.300460184073629298e-09,-8.067255380902644017e-04,1.938937908986727854e-03
2.320464185674269657e-09,-8.177984633562576655e-04,1.608488225733304376e-03
2.340468187274910016e-09,-8.202868679654954157e-04,1.288855529910718813e-03
2.360472188875549962e-09,-8.138868586237471819e-04,9.974517661309049207e-04
2.380476190476190321e-09,-7.989374770380880657e-04,7.506900801979457614e-04
2.400480192076830680e-09,-7.763749410893696582e-04,5.630130849110647363e-04
2.420484193677471039e-09,-7.476491739211969670e-04,4.460269718865625226e-04
2.440488195278111398e-09,-7.146091630772096696e-04,4.077937008507763841e-04
2.460492196878751344e-09,-6.793655585723652529e-04,4.523240515164738546e-04
2.480496198479391703e-09,-6.441402059731810795e-04,5.793022988400566139e-04
2.500500200080032062e-09,-6.111129442554567295e-04,7.840594077771256875e-04
2.520504201680672007e-09,-5.822759472593295061e-04,1.057796785628927101e-03
2.540508203281312366e-09,-5.593051651809347524e-04,1.388047682870785851e-03
2.560512204881952725e-09,-5.434570850366204431e-04,1.759349202805187470e-03
2.580516206482593084e-09,-5.354971718188767391e-04,2.154085418653809564e-03
2.600520208083233443e-09,-5.356641031810668125e-04,2.553452050547623704e-03
2.620524209683873389e-09,-5.436714221261910096e-04,2.938486120632773004e-03
2.640528211284513748e-09,-5.587456706590848308e-04,3.291100392508024275e-03
2.660532212885154107e-09,-5.796976023239306438e-04,3.595062411799622177e-03
2.680536214485794052e-09,-6.050208649364009891e-04,3.836861577196303344e-03
2.700540216086434412e-09,-6.330107404557080725e-04,4.006414646610919131e-03
2.720544217687074771e-09,-6.618942433066775420e-04,4.097569979664573980e-03
2.740548219287715130e-09,-6.899621932681273238e-04,4.108383019404872848e-03
2.760552220888355489e-09,-7.156938360864873632e-04,4.041149271374464523e-03
2.780556222488995434e-09,-7.378651835692839975e-04,3.902195506145673346e-03
2.800560224089635793e-09,-7.556334420894221656e-04,3.701444214361953450e-03
2.820564225690276152e-09,-7.685916118487219704e-04,3.451779619872998722e-03
2.840568227290916098e-09,-7.767894526604078066e-04,3.168255014335807744e-03
2.860572228891556457e-09,-7.807193829037704621e-04,2.867190139963166420e-03
2.880576230492196816e-09,-7.812683472424335933e-04,2.565213297183636422e-03
2.900580232092837175e-09,-7.796390897418662216e-04,2.278305459400110835e-03
2.920584233693477534e-09,-7.772464405819763840e-04,2.020902812392625595e-03
2.940588235294117480e-09,-7.755960199666753728e-04,1.805109887756105660e-03
2.960592236894757839e-09,-7.761540599514016271e-04,1.640068119529991975e-03
2.980596238495398198e-09,-7.802177541876762195e-04,1.531514697639636477e-03
3.000600240096038143e-09,-7.887956159961693418e-04,1.481554652287089303e-03
3.020604241696678502e-09,-8.025067476995700411e-04,1.488655926019538146e-03
3.040608243297318861e-09,-8.215067325082019405e-04,1.547863588895386682e-03
3.060612244897959220e-09,-8.454461289491412099e-04,1.651216158620601084e-03
3.080616246498599579e-09,-8.734653874728790044e-04,1.788334999992480679e-03
3.100620248099239525e-09,-9.042275591866735969e-04,1.947147712778336121e-03
3.120624249699879884e-09,-9.359875875808228596e-04,2.114698865581033423e-03
3.140628251300520243e-09,-9.666944355032909119e-04,2.277996826605840647e-03
3.160632252901160188e-09,-9.941199703468511697e-04,2.424844026975903934e-03
3.180636254501800547e-09,-1.016006567301449377e-03,2.544599816653103901e-03
3.200640256102440907e-09,-1.030223928201253088e-03,2.628829986310086183e-03
3.220644257703081266e-09,-1.034924755414217724e-03,2.671804692053511131e-03
3.240648259303721625e-09,-1.028688731709668808e-03,2.670816430029511468e-03
3.260652260904361570e-09,-1.010644760723668082e-03,2.626301228547510934e-03
3.280656262505001929e-09,-9.805625965707113773e-04,2.541758628444313380e-03
3.300660264105642288e-09,-9.389067697489711459e-04,2.423478533875961845e-03
3.320664265706282234e-09,-8.868479943112794316e-04,2.280094863517882504e-03
3.340668267306922593e-09,-8.262298793375880352e-04,2.121996393870716549e-03
3.360672268907562952e-09,-7.594916020351386975e-04,1.960633633264499253e-03
3.380676270508203311e-09,-6.895500514630605211e-04,1.807766499974840322e-03
3.400680272108843670e-09,-6.196476384702965688e-04,1.674700664160978271e-03
3.420684273709483615e-09,-5.531743144407978621e-04,1.571560494531305720e-03
3.440688275310123975e-09,-4.934741934679383237e-04,1.506643657816664856e-03
3.460692276910764334e-09,-4.436484034274234579e-04,1.485896767077218806e-03
3.480696278511404279e-09,-4.063663123981902346e-04,1.512543446839740430e-03
3.500700280112044638e-09,-3.836970428690912615e-04,1.586886305230635714e-03
3.520704281712684997e-09,-3.769721989737068093e-04,1.706293210583150095e-03
3.540708283313325356e-09,-3.866890408122392866e-04,1.865366665636074501e-03
3.560712284913965715e-09,-4.124610388226708610e-04,2.056283683464176643e-03
3.580716286514605661e-09,-4.530199637598897994e-04,2.269283101212471974e-03
3.600720288115246020e-09,-5.062705794030704061e-04,2.493268360958669511e-03
3.620724289715886379e-09,-5.693957926449016386e-04,2.716486977768633147e-03
3.640728291316526324e-09,-6.390069764829562488e-04,2.927243602937284681e-03
3.660732292917166683e-09,-7.113313112058765493e-04,3.114602015327607408e-03
3.680736294517807043e-09,-7.824255693698811080e-04,3.269032602300352662e-03
3.700740296118447402e-09,-8.484039572578680943e-04,3.382965815181972202e-03
3.720744297719087761e-09,-9.056665403418735251e-04,3.451218426922636820e-03
3.740748299319727706e-09,-9.511145005632350418e-04,3.471267758027789078e-03
3.760752300920367652e-09,-9.823390282414285520e-04,3.443358827545649290e-03
3.780756302521008424e-09,-9.977720195062408752e-04,3.370440000623871335e-03
3.800760304121648370e-09,-9.967888596002644208e-04,3.257933470009541886e-03
3.820764305722289142e-09,-9.797563052329376961e-04,3.113357150771144458e-03
3.840768307322929088e-09,-9.480216778386257870e-04,2.945823650417755436e-03
3.860772308923569033e-09,-9.038430561957614632e-04,2.765449344738806631e-03
3.880776310524209806e-09,-8.502637042802326309e-04,2.582711800614406056e-03
3.900780312124849751e-09,-7.909373745332126237e-04,2.407796538070140335e-03
3.920784313725490524e-09,-7.299141801509179649e-04,2.249974269610125095e-03
3.940788315326130470e-09,-6.713992436179841167e-04,2.117047314837051334e-03
3.960792316926770415e-09,-6.194981440684482624e-04,2.014899043988147009e-03
3.980796318527411188e-09,-5.779641851275381208e-04,1.947173285685458756e-03
4.000800320128051133e-09,-5.499626175562730233e-04,1.915102099090240694e-03
4.020804321728691079e-09,-5.378661598121129957e-04,1.917490712775250057e-03
4.040808323329331851e-09,-5.430945012514232229e-04,1.950858387132806690e-03
4.060812324929971797e-09,-5.660080362938435874e-04,2.009724101076788491e-03
4.080816326530611742e-09,-6.058630001715549322e-04,2.087016915943957097e-03
4.100820328131252515e-09,-6.608316343866385599e-04,2.174583191635542836e-03
4.120824329731892460e-09,-7.280872086952787066e-04,2.263756992210529465e-03
4.140828331332533233e-09,-8.039498897301506491e-04,2.345956369993335618e-03
4.160832332933173179e-09,-8.840858018293141574e-04,2.413266967178711968e-03
4.180836334533813124e-09,-9.637483914235598541e-04,2.458975577278049978e-03
4.200840336134453897e-09,-1.038048578091653939e-03,2.478019865827104599e-03
4.220844337735093842e-09,-1.102238314426198145e-03,2.467326113478484143e-03
4.240848339335734615e-09,-1.151991200256512107e-03,2.426014237363826719e-03
4.260852340936374560e-09,-1.183663770165677490e-03,2.355457985358703956e-03
4.280856342537014506e-09,-1.194522006513091660e-03,2.259197525400438115e-03
4.300860344137655278e-09,-1.182919476562827119e-03,2.142711072696342704e-03
4.320864345738295224e-09,-1.148416150818935659e-03,2.013061115395353446e-03
4.340868347338935169e-09,-1.091830280708115837e-03,1.878438654987426779e-03
4.360872348939575942e-09,-1.015219507768196994e-03,1.747635184188210677e-03
4.380876350540215887e-09,-9.217914249452023286e-04,1.629476497206204305e-03
4.400880352140855833e-09,-8.157478786896520942e-04,1.532254605314529007e-03
4.420884353741496606e-09,-7.020711510352324646e-04,1.463193895474097003e-03
4.440888355342136551e-09,-5.862635680179587938e-04,1.427985249275451514e-03
4.460892356942777324e-09,-4.740548437816673242e-04,1.430417305541084854e-03
4.480896358543417269e-09,-3.710934244129096755e-04,1.472127706323271947e-03
4.500900360144057215e-09,-2.826391243903619453e-04,1.552489428150482294e-03
4.520904361744697987e-09,-2.132743875478042370e-04,1.668638668122805193e-03
4.540908363345337933e-09,-1.666505471658552258e-04,1.815641780021067702e-03
4.560912364945978705e-09,-1.452835577845928853e-04,1.986790008168688813e-03
4.580916366546618651e-09,-1.504109312713024422e-04,2.174002796547423472e-03
4.600920368147258596e-09,-1.819181872974970804e-04,2.368313754230349111e-03
4.620924369747899369e-09,-2.383392193738489030e-04,2.560408347727141914e-03
4.640928371348539315e-09,-3.169308062640150141e-04,2.741179368774888069e-03
4.660932372949179260e-09,-4.138173047876026259e-04,2.902265366971225335e-03
4.680936374549820033e-09,-5.241975851260124303e-04,3.036538577097842254e-03
4.700940376150459978e-09,-6.426027426425091589e-04,3.138512308641299570e-03
4.720944377751099924e-09,-7.631902439489228734e-04,3.204643066064731018e-03
4.740948379351740696e-09,-8.800581048630312046e-04,3.233509483402383523e-03
4.760952380952380642e-09,-9.875615721093825190e-04,3.225858043709550153e-03
4.780956382553021414e-09,-1.080614653150356423e-03,3.184514006827935187e-03
4.800960384153661360e-09,-1.154959715693256936e-03,3.114164450343657759e-03
4.820964385754301305e-09,-1.207390208508698397e-03,3.021028303725259608e-03
4.840968387354942078e-09,-1.235914231645064091e-03,2.912435226042221076e-03
4.860972388955582023e-09,-1.239850051803581196e-03,2.796340712549347674e-03
4.880976390556222796e-09,-1.219848522988832736e-03,2.680808578140165752e-03
4.900980392156862742e-09,-1.177841510983108908e-03,2.573493734233873835e-03
4.920984393757502687e-09,-1.116919595089760960e-03,2.481157855792111983e-03
4.940988395358143460e-09,-1.041146293118091820e-03,2.409248165162816268e-03
4.960992396958783405e-09,-9.553195995333980169e-04,2.361565306676681811e-03
4.980996398559423351e-09,-8.646945415209236416e-04,2.340040435097351639e-03
5.001000400160064123e-09,-7.746825800062868755e-04,2.344634575270807507e-03
5.021004401760704069e-09,-6.905448954307612979e-04,2.373365486074865797e-03
5.041008403361344014e-09,-6.170968372026145550e-04,2.422459179341549928e-03
5.061012404961984787e-09,-5.584400734452030441e-04,2.486615415951630957e-03
5.081016406562624732e-09,-5.177373025510660079e-04,2.559369418275870677e-03
5.101020408163265505e-09,-4.970418819659456295e-04,2.633526140495532058e-03
5.121024409763905450e-09,-4.971915413739407029e-04,2.701639087059701499e-03
5.141028411364545396e-09,-5.177716638764978153e-04,2.756503124524792812e-03
5.161032412965186169e-09,-5.571496536496372935e-04,2.791630136497704438e-03
5.181036414565826114e-09,-6.125778901190680800e-04,2.801677743922230922e-03
5.201040416166466887e-09,-6.803589262113289267e-04,2.782804547301423199e-03
5.221044417767106832e-09,-7.560631388871136846e-04,2.732930220565487917e-03
