# Time (s),DUT (V),TEM (V)
0.000000000000000000e+00,-3.071896930472693427e-04,1.895670911831645470e-03
2.000400160064025567e-11,-7.789767530844786923e-04,1.530652750013215347e-03
4.000800320128051133e-11,-1.241349410016505655e-03,1.142370647728367010e-03
6.001200480192076700e-11,-1.678799219484387178e-03,7.527503314315958736e-04
8.001600640256102266e-11,-2.076988826924310375e-03,3.833048247192220610e-04
1.000200080032012783e-10,-2.423376058392483212e-03,5.394671237666995702e-05
1.200240096038415340e-10,-2.707748175166719944e-03,-2.180821855168508269e-04
1.400280112044817897e-10,-2.922639954543540877e-03,-4.191052083195079855e-04
1.600320128051220453e-10,-3.063615376223693260e-03,-5.396819072191823448e-04
1.800360144057623010e-10,-3.129399870983451317e-03,-5.750220386384908558e-04
2.000400160064025567e-10,-3.121857935199189808e-03,-5.251242318456505022e-04
2.200440176070428123e-10,-3.045819004145596583e-03,-3.946373452318942157e-04
2.400480192076830680e-10,-2.908762369205351254e-03,-1.924586751475235603e-04
2.600520208083233237e-10,-2.720379191529527247e-03,6.890174666929754093e-05
2.800560224089635793e-10,-2.492035915305869809e-03,3.741484081139511992e-04
3.000600240096038350e-10,-2.236168283107207132e-03,7.061663389945842901e-04
3.200640256102440907e-10,-1.965638445200328880e-03,1.047065965676219346e-03
3.400680272108843463e-10,-1.693089165665758724e-03,1.379243369394757886e-03
3.600720288115246020e-10,-1.430328791309265317e-03,1.686392839843002750e-03
3.800760304121648577e-10,-1.187778497816873021e-03,1.954412679751144251e-03
4.000800320128051133e-10,-9.740094948455417859e-04,2.172152731723176085e-03
4.200840336134453690e-10,-7.953925834600442937e-04,2.331962570603271587e-03
4.400880352140856247e-10,-6.558760203744199314e-04,2.430012067173444815e-03
4.600920368147258803e-10,-5.569004202881738764e-04,2.466370286562344014e-03
4.800960384153661360e-10,-4.974518273484134032e-04,2.444843561329495402e-03
5.001000400160063916e-10,-4.742465340942655038e-04,2.372588171505438017e-03
5.201040416166466473e-10,-4.820341393871826769e-04,2.259526495951628272e-03
5.401080432172869030e-10,-5.139991041156065539e-04,2.117606975038317622e-03
5.601120448179271586e-10,-5.622360216303293927e-04,1.959957074552724256e-03
5.801160464185674143e-10,-6.182702355041282171e-04,1.799984161764860103e-03
6.001200480192076700e-10,-6.735934922573081577e-04,1.650481488413018012e-03
6.201240496198479256e-10,-7.201840988675582526e-04,1.522795225419459539e-03
6.401280512204881813e-10,-7.509825535281456016e-04,1.426103829340043434e-03
6.601320528211284370e-10,-7.602967256711732572e-04,1.366853266126794768e-03
6.801360544217686926e-10,-7.441151802567843795e-04,1.348381283635801753e-03
7.001400560224089483e-10,-7.003128964185101942e-04,1.370751672342569987e-03
7.201440576230492040e-10,-6.287400849894500760e-04,1.430806056203945322e-03
7.401480592236894596e-10,-5.311916848188655456e-04,1.522427047182001603e-03
7.601520608243297153e-10,-4.112620161165707181e-04,1.636993423261112138e-03
7.801560624249699710e-10,-2.740955956792525848e-04,1.763996155799491677e-03
8.001600640256102266e-10,-1.260509050393414311e-04,1.891774333260781748e-03
8.201640656262504823e-10,2.570137354987071321e-05,2.008322887851088541e-03
8.401680672268907380e-10,1.736207338363977165e-04,2.102119945465729962e-03
8.601720688275309936e-10,3.102530083432561252e-04,2.162920812682886731e-03
8.801760704281712493e-10,4.286731702288761004e-04,2.182468109065356047e-03
9.001800720288115050e-10,5.228888906583894873e-04,2.155073167423644798e-03
9.201840736294517606e-10,5.881817203899583103e-04,2.078032187234538693e-03
9.401880752300919129e-10,6.213668254430207254e-04,1.951851199214678714e-03
9.601920768307322720e-10,6.209573228437363342e-04,1.780266012290037010e-03
9.801960784313726310e-10,5.872251211904044215e-04,1.570056208168957995e-03
1.000200080032012783e-09,5.221564201061299707e-04,1.330665121110794977e-03
1.020204081632652936e-09,4.293062916878457647e-04,1.073649795951486016e-03
1.040208083233293295e-09,3.135626879323181841e-04,8.119954164546880435e-04
1.060212084833933654e-09,1.808354473342252031e-04,5.593369999170201817e-04
1.080216086434573806e-09,3.769011214358558256e-05,3.291367634323902770e-04
1.100220088035213958e-09,-1.090506228313458049e-04,1.338681523095855842e-04
1.120224089635854317e-09,-2.527133918131981016e-04,-1.574305972647571986e-05
1.140228091236494676e-09,-3.871639868339585636e-04,-1.113738813534051670e-04
1.160232092837134829e-09,-5.071572697803118559e-04,-1.476152665418913707e-04
1.180236094437774981e-09,-6.086265936744749468e-04,-1.223081738088554733e-04
1.200240096038415340e-09,-6.888960459344302357e-04,-3.668424543470557556e-05
1.220244097639055699e-09,-7.468036672844006801e-04,1.046970954729001111e-04
1.240248099239695851e-09,-7.827292982008563892e-04,2.942108136104968903e-04
1.260252100840336004e-09,-7.985265272210117799e-04,5.216111900957231835e-04
1.280256102440976363e-09,-7.973640127789953687e-04,7.746318942175383585e-04
1.300260104041616722e-09,-7.834868775985440875e-04,1.039704226408415689e-03
1.320264105642256874e-09,-7.619136119623333685e-04,1.302749527364198499e-03
1.340268107242897026e-09,-7.380876927804177860e-04,1.549997456410179622e-03
1.360272108843537385e-09,-7.175057121709141556e-04,1.768780539778555799e-03
1.380276110444177744e-09,-7.053450670109569134e-04,1.948257138796488956e-03
1.400280112044817897e-09,-7.061141243435297039e-04,2.080019662991931979e-03
1.420284113645458049e-09,-7.233462646304631956e-04,2.158552148090772931e-03
1.440288115246098408e-09,-7.593564152561827233e-04,2.181510768352925341e-03
1.460292116846738767e-09,-8.150747952473545634e-04,2.149811861110724129e-03
1.480296118447378919e-09,-8.899678380909036143e-04,2.067523920545962304e-03
1.500300120048019072e-09,-9.820509318286471667e-04,1.941572029879674388e-03
1.520304121648659431e-09,-1.087992035699495309e-03,1.781274604702805416e-03
1.540308123249299790e-09,-1.203299735081415564e-03,1.597742415675317169e-03
1.560312124849939942e-09,-1.322584209229901112e-03,1.403178031876016734e-03
1.580316126450580094e-09,-1.439875211094733673e-03,1.210119584908230309e-03
1.600320128051220453e-09,-1.548977753269729137e-03,1.030675759015154758e-03
1.620324129651860812e-09,-1.643843957960659232e-03,8.757989970094761777e-04
1.640328131252500965e-09,-1.718938590444155524e-03,7.546410907648781578e-04
1.660332132853141117e-09,-1.769576205886997256e-03,6.740297933405090978e-04
1.680336134453781476e-09,-1.792209569348253342e-03,6.380972094401580466e-04
1.700340136054421835e-09,-1.784651950835574501e-03,6.480809973829092154e-04
1.720344137655061987e-09,-1.746219872465130983e-03,7.023084660930167334e-04
1.740348139255702140e-09,-1.677787653501488195e-03,7.963621643976253987e-04
1.760352140856342499e-09,-1.581750375548649293e-03,9.234142561143925034e-04
1.780356142456982858e-09,-1.461897359525020845e-03,1.074706556496269564e-03
1.800360144057623010e-09,-1.323203582977546889e-03,1.240144217886887668e-03
1.820364145658263162e-09,-1.171551354315962913e-03,1.408964240245087242e-03
1.840368147258903521e-09,-1.013398710715885005e-03,1.570435658344942597e-03
1.860372148859543880e-09,-8.554141742364147717e-04,1.714546677149202114e-03
1.880376150460183826e-09,-7.040995003256371714e-04,1.832635272457651052e-03
1.900380152060824185e-09,-5.654227680153840318e-04,1.917923750577490982e-03
1.920384153661464544e-09,-4.444835514969193869e-04,1.965924202999104909e-03
1.940388155262104903e-09,-3.452300164011952617e-04,1.974690281116369631e-03
1.960392156862745262e-09,-2.702447146976968539e-04,1.944900706574092912e-03
1.980396158463385208e-09,-2.206117922089788970e-04,1.879770787524426539e-03
2.000400160064025567e-09,-1.958735127322231882e-04,1.784799240799864965e-03
2.020404161664665926e-09,-1.940787266773450414e-04,1.667368127147135504e-03
2.040408163265305871e-09,-2.119204807871893209e-04,1.536223028834124297e-03
2.060412164865946230e-09,-2.449546982122076952e-04,1.400868150417424168e-03
2.080416166466586589e-09,-2.878870640476021998e-04,1.270916331693904087e-03
2.100420168067226948e-09,-3.349112111830081662e-04,1.155436696868840330e-03
2.120424169667867307e-09,-3.800782510962139732e-04,1.062342658735558262e-03
2.140428171268507253e-09,-4.176758118557784066e-04,9.978602573147900712e-04
2.160432172869147612e-09,-4.425941403576807032e-04,9.661115175883397757e-04
2.180436174469787971e-09,-4.506575322659118793e-04,9.688400003905371042e-04
2.200440176070427916e-09,-4.389013292985690490e-04,1.005296473475414832e-03
2.220444177671068276e-09,-4.057778535950088187e-04,1.072292234909252720e-03
2.240448179271708635e-09,-3.512787502244032784e-04,1.164416739249005475e-03
2.260452180872348994e-09,-2.769660426971962196e-04,1.274405500281323034e-03
2.280456182472989353e-09,-1.859094918437451463e-04,1.393634451621278718e-03
2.300460184073629298e-09,-8.253327926015587045e-05,1.512708662139816695e-03
2.320464185674269657e-09,2.761970142781510680e-05,1.622107056470364862e-03
2.340468187274910016e-09,1.381928726151615875e-04,1.712840983416923394e-03
2.360472188875549962e-09,2.423732056803808946e-04,1.777083355490667767e-03
2.380476190476190321e-09,3.332804828233739813e-04,1.808726730644912278e-03
2.400480192076830680e-09,4.043665047685277816e-04,1.803833027944660820e-03
2.420484193677471039e-09,4.498015168650755860e-04,1.760944299161619703e-03
2.440488195278111398e-09,4.648257791702962451e-04,1.681232702389740723e-03
2.460492196878751344e-09,4.460461171015144845e-04,1.568477999134999324e-03
2.480496198479391703e-09,3.916603466693226437e-04,1.428871887105587516e-03
2.500500200080032062e-09,3.015964954186577075e-04,1.270659597497593874e-03
2.520504201680672007e-09,1.775585055108763191e-04,1.103639727450174109e-03
2.540508203281312366e-09,2.297533617740290764e-05,9.385525778555744211e-04
2.560512204881952725e-09,-1.571442190031318035e-04,7.863947307325792023e-04
2.580516206482593084e-09,-3.564434251379750788e-04,6.577027475546731380e-04
2.600520208083233443e-09,-5.675238107256754027e-04,5.618513610792668939e-04
2.620524209683873389e-09,-7.823091678053219590e-04,5.064111929699541574e-04
2.640528211284513748e-09,-9.924476488733452798e-04,4.966078578373808120e-04
2.660532212885154107e-09,-1.189730189189385032e-03,5.349184873632718135e-04
2.680536214485794052e-09,-1.366502630804175295e-03,6.208335680057492029e-04
2.700540216086434412e-09,-1.516049333661799794e-03,7.508020200345007092e-04
2.720544217687074771e-09,-1.632927698778148572e-03,9.183662579825197826e-04
2.740548219287715130e-09,-1.713235798836708389e-03,1.114482245993736421e-03
2.760552220888355489e-09,-1.754799049621134054e-03,1.328008016508897861e-03
2.780556222488995434e-09,-1.757266345357286989e-03,1.546333471118293027e-03
2.800560224089635793e-09,-1.722111065636371466e-03,1.756115191461002801e-03
2.820564225690276152e-09,-1.652537558978904543e-03,1.944073027411209091e-03
2.840568227290916098e-09,-1.553298826842245545e-03,2.097800843999277076e-03
2.860572228891556457e-09,-1.430435887873062915e-03,2.206542287166028075e-03
2.880576230492196816e-09,-1.290953434718290728e-03,2.261883887761538450e-03
2.900580232092837175e-09,-1.142449681862458231e-03,2.258322198118291844e-03
2.920584233693477534e-09,-9.927205699478253674e-04,2.193668702891694682e-03
2.940588235294117480e-09,-8.493596263072168608e-04,2.069265558434840724e-03
2.960592236894757839e-09,-7.193747344132849072e-04,1.889996245559870955e-03
2.980596238495398198e-09,-6.088418549319206613e-04,1.664087314660674327e-03
3.000600240096038143e-09,-5.226134513562165134e-04,1.402709837399671554e-03
3.020604241696678502e-09,-4.640961464756390687e-04,1.119401208675960963e-03
3.040608243297318861e-09,-4.351081653707028311e-04,8.293388403393809737e-04
3.060612244897959220e-09,-4.358226382001757467e-04,5.485063928228000414e-04
3.080616246498599579e-09,-4.647980988458839426e-04,2.927999462338150435e-04
3.100620248099239525e-09,-5.190927907235926919e-04,7.712550106754383853e-05
3.120624249699879884e-09,-5.944549408137263062e-04,-8.545983236078955590e-05
3.140628251300520243e-09,-6.855772293211653953e-04,-1.845127201864021167e-04
3.160632252901160188e-09,-7.864004740892439156e-04,-2.128294351637405367e-04
3.180636254501800547e-09,-8.904492300771552158e-04,-1.668952920946637983e-04
3.200640256102440907e-09,-9.911806857857009389e-04,-4.713038005470381758e-05
3.220644257703081266e-09,-1.082327972871580286e-03,1.420840368850586775e-04
3.240648259303721625e-09,-1.158219784279564298e-03,3.926014352683955631e-04
3.260652260904361570e-09,-1.214059953168937197e-03,6.929183874983807631e-04
3.280656262505001929e-09,-1.246153258967609354e-03,1.028773159731186148e-03
3.300660264105642288e-09,-1.252067031402147529e-03,1.383901304271622753e-03
3.320664265706282234e-09,-1.230721916232277490e-03,1.740905869231797491e-03
3.340668267306922593e-09,-1.182409222442126068e-03,2.082193180177627570e-03
3.360672268907562952e-09,-1.108736354864646705e-03,2.390921334375714462e-03
3.380676270508203311e-09,-1.012505717684265448e-03,2.651907811457326469e-03
3.400680272108843670e-09,-8.975359392105927399e-04,2.852444985594104580e-03
3.420684273709483615e-09,-7.684371321068355232e-04,2.982977679554873682e-03
3.440688275310123975e-09,-6.303540203849723180e-04,3.037604910285055405e-03
3.460692276910764334e-09,-4.886920360849340752e-04,3.014378162416044872e-03
3.480696278511404279e-09,-3.488418670591720899e-04,2.915380286142815573e-03
3.500700280112044638e-09,-2.159174279331074471e-04,2.746581753614692461e-03
3.520704281712684997e-09,-9.452088559620304290e-05,2.517483778147313125e-03
3.540708283313325356e-09,1.145369832067194527e-05,2.240569952940599675e-03
3.560712284913965715e-09,9.896919992739627381e-05,1.930598890060547350e-03
3.580716286514605661e-09,1.659408995438030527e-04,1.603779207634093784e-03
3.600720288115246020e-09,2.112760289077130166e-04,1.276874614036236028e-03
3.620724289715886379e-09,2.348581547995277495e-04,9.662904117824378664e-04
3.640728291316526324e-09,2.374802900288343463e-04,6.871933000842132344e-04
3.660732292917166683e-09,2.207334054939478563e-04,4.527138830480089966e-04
3.680736294517807043e-09,1.868592946801809671e-04,2.732759596530847149e-04
3.700740296118447402e-09,1.385783965512811652e-04,1.560888200175503907e-04
3.720744297719087761e-09,7.890413715805135743e-05,1.048288856135710370e-04
3.740748299319727706e-09,1.095557164889860311e-05,1.195257120485588599e-04
3.760752300920367652e-09,-6.222039089759295112e-05,1.966553053778814634e-04
3.780756302521008424e-09,-1.378070616611706801e-04,3.294316092521245914e-04
3.800760304121648370e-09,-2.133479620246374309e-04,5.082756184934710464e-04
3.820764305722289142e-09,-2.868425251606951387e-04,7.214315351621681865e-04
3.840768307322929088e-09,-3.568037787190575993e-04,9.556912883555839259e-04
3.860772308923569033e-09,-4.222768825295241985e-04,1.197183049341235626e-03
3.880776310524209806e-09,-4.828199637294349053e-04,1.432176400767154988e-03
3.900780312124849751e-09,-5.384510644428711903e-04,1.647856707772517738e-03
3.920784313725490524e-09,-5.895670510133013730e-04,1.833023961159771162e-03
3.940788315326130470e-09,-6.368419109409428729e-04,1.978676719068902471e-03
3.960792316926770415e-09,-6.811128981326983059e-04,2.078449407408147157e-03
3.980796318527411188e-09,-7.232634293831787832e-04,2.128880660121938544e-03
4.000800320128051133e-09,-7.641114744790739131e-04,2.129500994559499743e-03
4.020804321728691079e-09,-8.043114468204317193e-04,2.082739264983837942e-03
4.040808323329331851e-09,-8.442763547982380223e-04,1.993658333534938532e-03
4.060812324929971797e-09,-8.841253113334312944e-04,1.869540574341808318e-03
4.080816326530611742e-09,-9.236595394523994858e-04,1.719352571958294908e-03
4.100820328131252515e-09,-9.623678914780939243e-04,1.553125173141746201e-03
4.120824329731892460e-09,-9.994607617838200276e-04,1.381289509557925973e-03
4.140828331332533233e-09,-1.033929259753575691e-03,1.214011484667767158e-03
4.160832332933173179e-09,-1.064624751525787907e-03,1.060566428918919028e-03
4.180836334533813124e-09,-1.090352488246824642e-03,9.287922568499166684e-04
4.200840336134453897e-09,-1.109972101135343458e-03,8.246537500132711685e-04
4.220844337735093842e-09,-1.122497314984409944e-03,7.519429253986333918e-04
4.240848339335734615e-09,-1.127187333165680788e-03,7.121313324447052983e-04
4.260852340936374560e-09,-1.123622965255817018e-03,7.043801403629163871e-04
4.280856342537014506e-09,-1.111761656066685526e-03,7.257036672521505194e-04
4.300860344137655278e-09,-1.091967055037360631e-03,7.712722077013512735e-04
4.320864345738295224e-09,-1.065010535779246838e-03,8.348312488829859063e-04
4.340868347338935169e-09,-1.032044017250024733e-03,9.092069695375636995e-04
4.360872348939575942e-09,-9.945454206996744238e-04,9.868627317356163525e-04
4.380876350540215887e-09,-9.542399886937918312e-04,1.060468412089608271e-03
4.400880352140855833e-09,-9.130023695270744104e-04,1.123444039044963361e-03
4.420884353741496606e-09,-8.727457223313460702e-04,1.170441310303028861e-03
4.440888355342136551e-09,-8.353050370198804872e-04,1.197731006685349379e-03
4.460892356942777324e-09,-8.023223279779108418e-04,1.203470796688693419e-03
4.480896358543417269e-09,-7.751413211441449385e-04,1.187836013447296285e-03
4.500900360144057215e-09,-7.547187135520149262e-04,1.153005157014057704e-03
4.520904361744697987e-09,-7.415580775705517790e-04,1.103001537812101866e-03
4.540908363345337933e-09,-7.356710740001185574e-04,1.043402011113347136e-03
4.560912364945978705e-09,-7.365689194905868055e-04,9.809325472355085417e-04
4.580916366546618651e-09,-7.432851348874755341e-04,9.229778763829958599e-04
4.600920368147258596e-09,-7.544286051754009155e-04,8.770381632701181431e-04
4.620924369747899369e-09,-7.682640365809247605e-04,8.501692412860496371e-04
4.640928371348539315e-09,-7.828151266870030838e-04,8.484441419236471611e-04
4.660932372949179260e-09,-7.959842824390769150e-04,8.764724159914598052e-04
4.680936374549820033e-09,-8.056816236470536359e-04,9.370101374095985130e-04
4.700940376150459978e-09,-8.099553666143761250e-04,1.030687736850821211e-03
4.720944377751099924e-09,-8.071155356923370196e-04,1.155875295346533256e-03
4.740948379351740696e-09,-7.958433103381584543e-04,1.308696114004199345e-03
4.760952380952380642e-09,-7.752791601434768504e-04,1.483189824480490165e-03
4.780956382553021414e-09,-7.450841982031290636e-04,1.671616622492615731e-03
4.800960384153661360e-09,-7.054708147412365330e-04,1.864885009351133303e-03
4.820964385754301305e-09,-6.572005364619860901e-04,2.053077300714239474e-03
4.840968387354942078e-09,-6.015490751281229575e-04,2.226040627630307411e-03
4.860972388955582023e-09,-5.402405553694621066e-04,2.374006633505917983e-03
4.880976390556222796e-09,-4.753548200512338847e-04,2.488200857314229464e-03
4.900980392156862742e-09,-4.092133823543734911e-04,2.561403039148508511e-03
4.920984393757502687e-09,-3.442509224535352072e-04,2.588422285964528478e-03
4.940988395358143460e-09,-2.828801300064616529e-04,2.566456035574839895e-03
4.960992396958783405e-09,-2.273581147258022233e-04,2.495308753343104813e-03
4.980996398559423351e-09,-1.796625192103435580e-04,2.377454859941530944e-03
5.001000400160064123e-09,-1.413848757353139776e-04,2.217939991438729226e-03
5.021004401760704069e-09,-1.136476879563688653e-04,2.024124739119451382e-03
5.041008403361344014e-09,-9.705025468421715740e-05,1.805284879774192615e-03
5.061012404961984787e-09,-9.164647630429997968e-05,1.572091170334592638e-03
5.081016406562624732e-09,-9.695590477111581224e-05,1.335999473364861021e-03
5.101020408163265505e-09,-1.120072377826025273e-04,1.108587814472203727e-03
5.121024409763905450e-09,-1.354114442074942420e-04,9.008805749016642050e-04
5.141028411364545396e-09,-1.654598657749842456e-04,7.227011551360807036e-04
5.161032412965186169e-09,-2.002410836252883984e-04,5.820930231110822738e-04
5.181036414565826114e-09,-2.377691642019055785e-04,4.848451565979960422e-04
5.201040416166466887e-09,-2.761151802782709982e-04,4.341517304409389330e-04
5.221044417767106832e-09,-3.135336847773373273e-04,4.304278533554229910e-04
5.241048419367746778e-09,-3.485761117933113343e-04,4.712937120837420307e-04
