# Time (s),DUT (V),TEM (V)
0.000000000000000000e+00,-1.668388088501631186e-03,-4.941043423244997857e-04
2.000285795941697536e-11,-1.651683737848397109e-03,-5.418888509720554353e-04
4.000571591883395072e-11,-1.601695842219400543e-03,-5.913108804807939078e-04
6.000857387825092932e-11,-1.520664490752985688e-03,-6.448597346522959338e-04
8.001143183766790145e-11,-1.412142721948834176e-03,-7.046959214023516349e-04
1.000142897970848736e-10,-1.280813688378353238e-03,-7.724540005209702036e-04
1.200171477565018586e-10,-1.132248443632335490e-03,-8.490778129190819324e-04
1.400200057159188178e-10,-9.726176451113336579e-04,-9.346983299498618945e-04
1.600228636753358029e-10,-8.083731227642074711e-04,-1.028561842696901511e-03
1.800257216347527880e-10,-6.459170153128102401e-04,-1.129013276415868168e-03
2.000285795941697472e-10,-4.912769137679981338e-04,-1.233536235105846821e-03
2.200314375535867322e-10,-3.498051279370778858e-04,-1.338848136307265076e-03
2.400342955130037173e-10,-2.259188182383426965e-04,-1.441045667557446126e-03
2.600371534724207023e-10,-1.228953875751978553e-04,-1.535792954395365489e-03
2.800400114318376357e-10,-4.273433938445305065e-05,-1.618542427215032388e-03
3.000428693912546207e-10,1.390703814723374848e-05,-1.684776535514284418e-03
3.200457273506716058e-10,4.770108182110144464e-05,-1.730257275049651476e-03
3.400485853100885908e-10,6.056164104028239855e-05,-1.751270020834182336e-03
3.600514432695055759e-10,5.548621232851114773e-05,-1.744848412444454256e-03
3.800543012289225093e-10,3.633813734700268457e-05,-1.708967994474431228e-03
4.000571591883394943e-10,7.582151177263229296e-06,-1.642697914284566279e-03
4.200600171477564794e-10,-2.601074599918838727e-05,-1.546302129043126061e-03
4.400628751071734644e-10,-5.967137863505677812e-05,-1.421284155249144575e-03
4.600657330665904495e-10,-8.893503878278603901e-05,-1.270372267396187738e-03
4.800685910260074345e-10,-1.099206727010684922e-04,-1.097445066957203515e-03
5.000714489854243679e-10,-1.195700691845931083e-04,-9.074003431211534985e-04
5.200743069448414046e-10,-1.158329580292568218e-04,-7.059729812869512417e-04
5.400771649042583380e-10,-9.778721466366404572e-05,-4.995102042350205987e-04
5.600800228636752714e-10,-6.568729610806324992e-05,-2.947145322860640322e-04
5.800828808230923081e-10,-2.093836949352366659e-05,-9.836642440964565143e-05
6.000857387825092415e-10,3.400192198273888208e-05,8.296045819837819749e-05
6.200885967419262782e-10,9.578774820690517413e-05,2.431780809256737499e-04
6.400914547013432116e-10,1.604051491665800413e-04,3.769439722925831148e-04
6.600943126607601449e-10,2.234342147147823875e-04,4.798902051907264583e-04
6.800971706201771817e-10,2.803372079339591910e-04,5.488108501387402739e-04
7.001000285795941150e-10,3.267548954137855532e-04,5.817993086057617448e-04
7.201028865390111518e-10,3.587928606777996765e-04,5.783293053134084920e-04
7.401057444984280852e-10,3.732801899618083045e-04,5.392759625881796050e-04
7.601086024578450185e-10,3.679845958782574549e-04,4.668761696410666227e-04
7.801114604172620553e-10,3.417706833857812616e-04,3.646302626818644435e-04
8.001143183766789886e-10,2.946915050084039384e-04,2.371497170200985438e-04
8.201171763360960254e-10,2.280075909517889014e-04,8.995799604580751200e-05
8.401200342955129587e-10,1.441320311367543839e-04,-7.074620672239112084e-05
8.601228922549298921e-10,4.650466536235295606e-05,-2.383524508993697868e-04
8.801257502143469288e-10,-6.059726536332226115e-05,-4.061167485433702859e-04
9.001286081737638622e-10,-1.723007980115143320e-04,-5.674419079368377096e-04
9.201314661331808990e-10,-2.834168677021148969e-04,-7.161474745484164989e-04
9.401343240925978323e-10,-3.887411638987163867e-04,-8.467173270748357258e-04
9.601371820520148691e-10,-4.833582074825611640e-04,-9.545141403462931292e-04
9.801400400114316990e-10,-5.629304072639438206e-04,-1.035951572293046085e-03
1.000142897970848736e-09,-6.239547252847291083e-04,-1.088617089654261069e-03
1.020145755930265773e-09,-6.639714951261205126e-04,-1.111340718462864230e-03
1.040148613889682809e-09,-6.817127803840402744e-04,-1.104207578056030405e-03
1.060151471849099639e-09,-6.771812596777084881e-04,-1.068514709650312481e-03
1.080154329808516676e-09,-6.516547627966782445e-04,-1.006675316815917095e-03
1.100157187767933713e-09,-6.076160104798049083e-04,-9.220759718536633651e-04
1.120160045727350543e-09,-5.486115614482607768e-04,-8.188944931311336077e-04
1.140162903686767579e-09,-4.790481774060715344e-04,-7.018879609850398049e-04
1.160165761646184616e-09,-4.039385278063484393e-04,-5.761616290193287589e-04
1.180168619605601446e-09,-3.286111498033427738e-04,-4.469302409902414395e-04
1.200171477565018483e-09,-2.584016773457261740e-04,-3.192834440308277440e-04
1.220174335524435520e-09,-1.983434336402367507e-04,-1.979665875280433554e-04
1.240177193483852556e-09,-1.528754817806789526e-04,-8.718723299396800863e-05
1.260180051443269386e-09,-1.255851529801098874e-04,9.543778579462635327e-06
1.280182909402686423e-09,-1.189999891103881346e-04,8.952977511009004735e-05
1.300185767362103460e-09,-1.344410750400753998e-04,1.509595542023964743e-04
1.320188625321520290e-09,-1.719460777625004828e-04,1.929303641937822123e-04
1.340191483280937327e-09,-2.302661757988674548e-04,2.154229833598712862e-04
1.360194341240354363e-09,-3.069367035614264613e-04,2.192318680940827445e-04
1.380197199199771400e-09,-3.984170131531295498e-04,2.058557209843928613e-04
1.400200057159188230e-09,-5.002910285974202604e-04,1.773559085339743971e-04
1.420202915118605267e-09,-6.075164735007258267e-04,1.361918215934275391e-04
1.440205773078022304e-09,-7.147079977017161377e-04,8.504342586475458550e-05
1.460208631037439134e-09,-8.164375706772689393e-04,2.663182782920524007e-05
1.480211488996856170e-09,-9.075346532069035943e-04,-3.645135359616947553e-05
1.500214346956273207e-09,-9.833688467152490020e-04,-1.018956708759459143e-04
1.520217204915690037e-09,-1.040098931161353036e-03,-1.677956854176337713e-04
1.540220062875107074e-09,-1.074874355083366975e-03,-2.327398154104859136e-04
1.560222920834524111e-09,-1.085978197096095117e-03,-2.958592348748609758e-04
1.580225778793941147e-09,-1.072904191207347223e-03,-3.568343542322920375e-04
1.600228636753357977e-09,-1.036364377665196981e-03,-4.158590660215383109e-04
1.620231494712775014e-09,-9.782280638111005410e-04,-4.735656032895428440e-04
1.640234352672192051e-09,-9.013968059729907676e-04,-5.309153755316637843e-04
1.660237210631608881e-09,-8.096238126923130602e-04,-5.890633659036422594e-04
1.680240068591025917e-09,-7.072893036021178897e-04,-6.492054560476827199e-04
1.700242926550442954e-09,-5.991457553636473201e-04,-7.124192761760747908e-04
1.720245784509859784e-09,-4.900484915083552643e-04,-7.795097729882389083e-04
1.740248642469276821e-09,-3.846876468327101541e-04,-8.508705973724174729e-04
1.760251500428693858e-09,-2.873371382045580716e-04,-9.263716282548754757e-04
1.780254358388110894e-09,-2.016349409790552962e-04,-1.005281500423775131e-03
1.800257216347527724e-09,-1.304067990177554812e-04,-1.086231965352371176e-03
1.820260074306944761e-09,-7.554263197383258906e-05,-1.167228395105500156e-03
1.840262932266361798e-09,-3.793153200489331797e-05,-1.245707882333667695e-03
1.860265790225778628e-09,-1.745757793401153589e-05,-1.318643360370477802e-03
1.880268648185195665e-09,-1.305496760125253360e-05,-1.382689147652332081e-03
1.900271506144612495e-09,-2.281740881248905782e-05,-1.434360495536135972e-03
1.920274364104029738e-09,-4.415353228816420436e-05,-1.470237266808579460e-03
1.940277222063446568e-09,-7.397748577331271546e-05,-1.487179954700526899e-03
1.960280080022863398e-09,-1.089219880256834676e-04,-1.482545001952332003e-03
1.980282937982280642e-09,-1.455600684720207056e-04,-1.454385892434696985e-03
2.000285795941697472e-09,-1.806215434542530389e-04,-1.401626816283019260e-03
2.020288653901114715e-09,-2.111909780737217745e-04,-1.324196857558205143e-03
2.040291511860531545e-09,-2.348753939715896217e-04,-1.223114575492891595e-03
2.060294369819948375e-09,-2.499321981059587396e-04,-1.100515452479391022e-03
2.080297227779365619e-09,-2.553505732646519483e-04,-9.596178262579745403e-04
2.100300085738782449e-09,-2.508827028289987364e-04,-8.046264357090603201e-04
2.120302943698199279e-09,-2.370244949857491248e-04,-6.405763876217184828e-04
2.140305801657616522e-09,-2.149487128888493412e-04,-4.731239786669432109e-04
2.160308659617033352e-09,-1.863964013718008355e-04,-3.082941627236224181e-04
2.180311517576450182e-09,-1.535350413262840286e-04,-1.521973294467776042e-04
2.200314375535867426e-09,-1.187938044818749145e-04,-1.073026990334615376e-05
2.220317233495284255e-09,-8.468750933173622183e-05,1.107224009604097596e-04
2.240320091454701085e-09,-5.364132607424296163e-05,2.075696220279593098e-04
2.260322949414118329e-09,-2.782792860335679620e-05,2.762618202196601255e-04
2.280325807373535159e-09,-9.027680347251763548e-06,3.144906238953206661e-04
2.300328665332951989e-09,1.479347516495751613e-06,3.213279478308902668e-04
2.320331523292369232e-09,2.983065047291354157e-06,2.972951956523563958e-04
2.340334381251786062e-09,-4.628974150917892862e-06,2.443570937247620061e-04
2.360337239211202892e-09,-2.088674105148800893e-05,1.658388434973776242e-04
2.380340097170620136e-09,-4.479359589528698161e-05,6.626961877391882082e-05
2.400342955130036966e-09,-7.491796506838486710e-05,-4.884031292052103118e-05
2.420345813089454209e-09,-1.095135627820846672e-04,-1.732776528133554304e-04
2.440348671048871039e-09,-1.466590293579632376e-04,-3.004447895778559227e-04
2.460351529008287869e-09,-1.844066383588411793e-04,-4.237020957594962289e-04
2.480354386967705113e-09,-2.209292224337484206e-04,-5.367151213903822299e-04
2.500357244927121943e-09,-2.546547107037672045e-04,-6.337874611883828613e-04
2.520360102886538773e-09,-2.843786375913787893e-04,-7.101606363904122005e-04
2.540362960845956016e-09,-3.093466052561462572e-04,-7.622639879144223630e-04
2.560365818805372846e-09,-3.293008473079848779e-04,-7.879002420356298348e-04
2.580368676764789676e-09,-3.444876027677363692e-04,-7.863559394910913432e-04
2.600371534724206920e-09,-3.556247931008070019e-04,-7.584301166322765780e-04
2.620374392683623750e-09,-3.638323139457265345e-04,-7.063792531789468091e-04
2.640377250643040580e-09,-3.705299171791705867e-04,-6.337812869943068280e-04
2.660380108602457823e-09,-3.773099887825882392e-04,-5.453261610991912275e-04
2.680382966561874653e-09,-3.857943661883310817e-04,-4.465446350143622732e-04
2.700385824521291483e-09,-3.974855602458367493e-04,-3.434907055229645466e-04
2.720388682480708727e-09,-4.136232669725371834e-04,-2.423957217668215613e-04
2.740391540440125557e-09,-4.350568341637208077e-04,-1.493139771895421865e-04
2.760394398399542800e-09,-4.621433976595352208e-04,-6.978010815719190151e-05
2.780397256358959630e-09,-4.946797795983207255e-04,-8.497986153602117451e-06
2.800400114318376460e-09,-5.318740487445267496e-04,3.092101162704828681e-05
2.820402972277793704e-09,-5.723600213160822021e-04,4.615532879428968792e-05
2.840405830237210534e-09,-6.142550989792105358e-04,3.629488240576910169e-05
2.860408688196627364e-09,-6.552588863121013279e-04,1.880197804012344754e-06
2.880411546156044607e-09,-6.927871966832366930e-04,-5.514297903606133638e-05
2.900414404115461437e-09,-7.241335304637337711e-04,-1.315506321735354157e-04
2.920417262074878267e-09,-7.466480617339316984e-04,-2.230412368588501277e-04
2.940420120034295511e-09,-7.579227387687539202e-04,-3.244982434867450848e-04
2.960422977993712341e-09,-7.559703907729779012e-04,-4.302985793840858122e-04
2.980425835953129171e-09,-7.393857946231799285e-04,-5.346487814929556156e-04
3.000428693912546414e-09,-7.074774977856057882e-04,-6.319287876648528547e-04
3.020431551871963244e-09,-6.603607743580362701e-04,-7.170230208927903283e-04
3.040434409831380074e-09,-5.990043201457918073e-04,-7.856192227129412840e-04
3.060437267790797318e-09,-5.252260375900225141e-04,-8.344574789861517773e-04
3.080440125750214148e-09,-4.416363559678599770e-04,-8.615149125258394699e-04
3.100442983709630978e-09,-3.515307865291013062e-04,-8.661154084940108451e-04
3.120445841669048221e-09,-2.587366240281525269e-04,-8.489582540172873736e-04
3.140448699628465051e-09,-1.674216738808341454e-04,-8.120644393518358737e-04
3.160451557587882295e-09,-8.187541946494819318e-05,-7.586442895846275949e-04
3.180454415547299125e-09,-6.274983378506459325e-06,-6.928947759750218654e-04
3.200457273506715955e-09,5.555054845366606331e-05,-6.197390127470813956e-04
3.220460131466133198e-09,1.003434648193774848e-04,-5.445238293089303292e-04
3.240462989425550028e-09,1.256148929631807415e-04,-4.726937183098314788e-04
3.260465847384966858e-09,1.298041189923371892e-04,-4.094607556427894970e-04
3.280468705344384102e-09,1.123895253579427339e-04,-3.594901971026746379e-04
3.300471563303800931e-09,7.394358339530567687e-05,-3.266203784122780887e-04
3.320474421263217761e-09,1.612751016276584609e-05,-3.136333537504876266e-04
3.340477279222635005e-09,-5.837532197891794977e-05,-3.220895434500433883e-04
3.360480137182051835e-09,-1.459845533615896946e-04,-3.522357235402063776e-04
3.380482995141468665e-09,-2.424004432939665403e-04,-4.029912236657601254e-04
3.400485853100885908e-09,-3.428246259337367364e-04,-4.720124815816828501e-04
3.420488711060302738e-09,-4.422120885754540331e-04,-5.558314211736472936e-04
3.440491569019719568e-09,-5.355404790454149208e-04,-6.500587613642941093e-04
3.460494426979136812e-09,-6.180816772608131119e-04,-7.496395876215350591e-04
3.480497284938553642e-09,-6.856602643373193315e-04,-8.491455499775945421e-04
3.500500142897970885e-09,-7.348841149707965479e-04,-9.430860634199448493e-04
3.520503000857387715e-09,-7.633337962266967085e-04,-1.026219987950132166e-03
3.540505858816804545e-09,-7.696996979757252761e-04,-1.093849497809810554e-03
3.560508716776221789e-09,-7.538587198997883732e-04,-1.142079183294340047e-03
3.580511574735638619e-09,-7.168857308693459517e-04,-1.168025767380030449e-03
3.600514432695055449e-09,-6.609987027278260057e-04,-1.169967005252747728e-03
3.620517290654472692e-09,-5.894401884182307733e-04,-1.147422159502780063e-03
3.640520148613889522e-09,-5.063014450417522737e-04,-1.101160662234808556e-03
3.660523006573306352e-09,-4.162987846696513620e-04,-1.033139921709808713e-03
3.680525864532723596e-09,-3.245144785551325097e-04,-9.463774355250964380e-04
3.700528722492140426e-09,-2.361165842750659652e-04,-8.447661780133898859e-04
3.720531580451557256e-09,-1.560732915414967086e-04,-7.328454089018680753e-04
3.740534438410974499e-09,-8.887771995372037545e-05,-6.155414188171643743e-04
3.760537296370391329e-09,-3.829853160938003653e-05,-4.978941546069195253e-04
3.780540154329808159e-09,-7.170276854197122233e-06,-3.847860848989049349e-04
3.800543012289224989e-09,2.764843196295360151e-06,-2.806890700433102180e-04
3.820545870248642646e-09,-9.044991475274583836e-06,-1.894434509301657341e-04
3.840548728208059476e-09,-4.192879509903208737e-05,-1.140811876881882682e-04
3.860551586167476306e-09,-9.402767596903047849e-05,-5.670183201058742463e-05
3.880554444126893136e-09,-1.623950089128095293e-04,-1.840661453483414246e-05
3.900557302086309966e-09,-2.431561898493934091e-04,7.077954343003011108e-07
3.920560160045726796e-09,-3.317189810325700647e-04,1.498004329001995425e-06
3.940563018005144453e-09,-4.230226788084322643e-04,-1.432932259253952184e-05
3.960565875964561283e-09,-5.118122380431147861e-04,-4.436403570196209534e-05
3.980568733923978113e-09,-5.929221836240565653e-04,-8.567152652733170382e-05
4.000571591883394943e-09,-6.615546979102976573e-04,-1.349917428224737203e-04
4.020574449842811773e-09,-7.135367119039662991e-04,-1.889450312155882886e-04
4.040577307802229430e-09,-7.455421147040418089e-04,-2.442318185069108222e-04
4.060580165761646260e-09,-7.552672495742406185e-04,-2.978141498623509140e-04
4.080583023721063090e-09,-7.415505615674402272e-04,-3.470688498462509534e-04
4.100585881680479920e-09,-7.044304413561288660e-04,-3.899044199085583361e-04
4.120588739639896750e-09,-6.451387870005602767e-04,-4.248365565954094068e-04
4.140591597599313580e-09,-5.660313791837909628e-04,-4.510201676352203226e-04
4.160594455558731237e-09,-4.704596321419675722e-04,-4.682387677875159094e-04
4.180597313518148067e-09,-3.625914469867949066e-04,-4.768549474460556095e-04
4.200600171477564897e-09,-2.471915810850857688e-04,-4.777280378425346249e-04
4.220603029436981727e-09,-1.293740111088221938e-04,-4.721069919907150718e-04
4.240605887396398557e-09,-1.434010055018984784e-05,-4.615077463382825148e-04
4.260608745355815387e-09,9.288307935228271820e-05,-4.475848590472567804e-04
4.280611603315233044e-09,1.876902008883289349e-04,-4.320070236117223177e-04
4.300614461274649874e-09,2.661178869938231849e-04,-4.163451699228713863e-04
4.320617319234066704e-09,3.250264256089982007e-04,-4.019803760628286337e-04
4.340620177193483534e-09,3.622341068667732041e-04,-3.900368515605087032e-04
4.360623035152900364e-09,3.765981137072013304e-04,-3.813429765919392703e-04
4.380625893112317194e-09,3.680389933559177068e-04,-3.764209712080160051e-04
4.400628751071734851e-09,3.375089336483243240e-04,-3.755034100137192785e-04
4.420631609031151681e-09,2.869071799458141996e-04,-3.785726694762700279e-04
4.440634466990568511e-09,2.189487793061273930e-04,-3.854176557689328484e-04
4.460637324949985341e-09,1.369952710690544627e-04,-3.957009378442915616e-04
4.480640182909402171e-09,4.485782686187646153e-05,-4.090287898423634709e-04
4.500643040868819828e-09,-5.341541761824341564e-05,-4.250166689687788751e-04
4.520645898828236658e-09,-1.537555583294496978e-04,-4.433433103415514620e-04
4.540648756787653488e-09,-2.522805426756155080e-04,-4.637878513444788648e-04
4.560651614747070318e-09,-3.454829755693053896e-04,-4.862461030716761054e-04
4.580654472706487148e-09,-4.303883612861224110e-04,-5.107241274091786371e-04
4.600657330665903978e-09,-5.046760381338898354e-04,-5.373094908718497069e-04
4.620660188625321635e-09,-5.667574610997002868e-04,-5.661227721435866571e-04
4.640663046584738465e-09,-6.158091269459489096e-04,-5.972539201661398534e-04
4.660665904544155295e-09,-6.517601565310760046e-04,-6.306897269176877513e-04
4.680668762503572125e-09,-6.752371891954322969e-04,-6.662398520962230100e-04
4.700671620462988955e-09,-6.874716510986389169e-04,-7.034694100139352079e-04
4.720674478422405785e-09,-6.901764979183839599e-04,-7.416460405310542009e-04
4.740677336381823442e-09,-6.854010917222130286e-04,-7.797086235982890511e-04
4.760680194341240272e-09,-6.753738723960260246e-04,-8.162633997851381686e-04
4.780683052300657102e-09,-6.623428809832951130e-04,-8.496113149987100663e-04
4.800685910260073932e-09,-6.484239777038624999e-04,-8.778080479462672860e-04
4.820688768219490762e-09,-6.354657998072000581e-04,-8.987555700987813305e-04
4.840691626178908419e-09,-6.249391862851796930e-04,-9.103214197324475433e-04
4.860694484138325249e-09,-6.178570498554682546e-04,-9.104793440270270892e-04
4.880697342097742079e-09,-6.147286169593841210e-04,-8.974627721378434847e-04
4.900700200057158909e-09,-6.155497152368130925e-04,-8.699209053869114312e-04
4.920703058016575739e-09,-6.198285043106379569e-04,-8.270661946353834388e-04
4.940705915975992569e-09,-6.266438583489206647e-04,-7.688017232959846840e-04
4.960708773935410226e-09,-6.347316474769513182e-04,-6.958175800544778074e-04
4.980711631894827056e-09,-6.425925429243043536e-04,-6.096466847757596799e-04
5.000714489854243886e-09,-6.486137781782039822e-04,-5.126726634212978645e-04
5.020717347813660716e-09,-6.511965979542178691e-04,-4.080851374707329649e-04
5.040720205773077546e-09,-6.488809501332651504e-04,-2.997810364142175564e-04
5.060723063732494376e-09,-6.404593224266740253e-04,-1.922140561148661850e-04
5.080725921691912033e-09,-6.250724634372335298e-04,-9.019794344243271507e-05
5.100728779651328863e-09,-6.022809961191373301e-04,1.327349990678768424e-06
5.120731637610745693e-09,-5.721085449045786985e-04,7.755466832840064739e-05
5.140734495570162523e-09,-5.350538514489382256e-04,1.340795367636886469e-04
5.160737353529579353e-09,-4.920713311790098467e-04,1.671651871539711566e-04
5.180740211488997010e-09,-4.445215016156389676e-04,1.739864504165590010e-04
