# Time (s),DUT (V),TEM (V)
0.000000000000000000e+00,1.146687945785935213e-03,1.000359073211037420e-03
2.000400160064025567e-11,7.666702419643864645e-04,1.610670444922946386e-03
4.000800320128051133e-11,3.511228724513145794e-04,2.042114953690842699e-03
6.001200480192076700e-11,-8.534772296936877362e-05,2.276883003781592606e-03
8.001600640256102266e-11,-5.274261041776001418e-04,2.308732339974725861e-03
1.000200080032012783e-10,-9.597734051966696480e-04,2.143141832276007110e-03
1.200240096038415340e-10,-1.367709128964986849e-03,1.796767236450716107e-03
1.400280112044817897e-10,-1.737854546425609669e-03,1.296241036341419517e-03
1.600320128051220453e-10,-2.058705305044009233e-03,6.763975766522663247e-04
1.800360144057623010e-10,-2.321104832815820695e-03,-2.196157394858128386e-05
2.000400160064025567e-10,-2.518595634614880820e-03,-7.546207277048795452e-04
2.200440176070428123e-10,-2.647632302011011275e-03,-1.476662883983776917e-03
2.400480192076830680e-10,-2.707647611370564943e-03,-2.145175870577684194e-03
2.600520208083233237e-10,-2.700971038793159151e-03,-2.721788074950499525e-03
2.800560224089635793e-10,-2.632606924665170829e-03,-3.174882588605305953e-03
3.000600240096038350e-10,-2.509886931646210500e-03,-3.481360223932754901e-03
3.200640256102440907e-10,-2.342017945608174286e-03,-3.627851141610485136e-03
3.400680272108843463e-10,-2.139551812480465238e-03,-3.611309869451103174e-03
3.600720288115246020e-10,-1.913807003685591554e-03,-3.438967088862503966e-03
3.800760304121648577e-10,-1.676274268698161110e-03,-3.127651306996223103e-03
4.000800320128051133e-10,-1.438038476604519946e-03,-2.702531971035417209e-03
4.200840336134453690e-10,-1.209247186584711540e-03,-2.195370372351198793e-03
4.400880352140856247e-10,-9.986531410436730056e-04,-1.642393738452737565e-03
4.600920368147258803e-10,-8.132530615450822911e-04,-1.081929501582451275e-03
4.800960384153661360e-10,-6.580391457857597860e-04,-5.519496238833739282e-04
5.001000400160063916e-10,-5.358728764631876798e-04,-8.767835872611551350e-05
5.201040416166466473e-10,-4.474835648026635531e-04,2.805891696574230724e-04
5.401080432172869030e-10,-3.915868851863047091e-04,5.293252000445974013e-04
5.601120448179271586e-10,-3.651119279031764362e-04,6.431550128018625068e-04
5.801160464185674143e-10,-3.635193880023063640e-04,6.157101569884591234e-04
6.001200480192076700e-10,-3.811887491960630134e-04,4.499033806273172948e-04
6.201240496198479256e-10,-4.118489696986546303e-04,1.576158910621568415e-04
6.401280512204881813e-10,-4.490254018435839390e-04,-2.411758165628557376e-04
6.601320528211284370e-10,-4.864755534909246900e-04,-7.197718407860403088e-04
6.801360544217686926e-10,-5.185878017951520147e-04,-1.246527496391934380e-03
7.001400560224089483e-10,-5.407201778398013298e-04,-1.786922523570179215e-03
7.201440576230492040e-10,-5.494606452498077822e-04,-2.305788034313361635e-03
7.401480592236894596e-10,-5.427956144267024382e-04,-2.769550092543951632e-03
7.601520608243297153e-10,-5.201794276744742393e-04,-3.148349427839327273e-03
7.801560624249699710e-10,-4.825038453344315890e-04,-3.417906106963226973e-03
8.001600640256102266e-10,-4.319727731829383320e-04,-3.561015357013337136e-03
8.201640656262504823e-10,-3.718932221298969264e-04,-3.568584981559009932e-03
8.401680672268907380e-10,-3.063984417866654538e-04,-3.440154355286168929e-03
8.601720688275309936e-10,-2.401230327072212270e-04,-3.183867930331438136e-03
8.801760704281712493e-10,-1.778524014926040190e-04,-2.815910454653359259e-03
9.001800720288115050e-10,-1.241700445892857400e-04,-2.359444545810747765e-03
9.201840736294517606e-10,-8.312578628278213030e-05,-1.843121812845288339e-03
9.401880752300919129e-10,-5.794630103091242054e-05,-1.299264506910570438e-03
9.601920768307322720e-10,-5.080615394657110210e-05,-7.618341559708552337e-04
9.801960784313726310e-10,-6.267340777823923639e-05,-2.643156574150127202e-04
1.000200080032012783e-09,-9.323884586552857122e-05,1.623508022967635729e-04
1.020204081632652936e-09,-1.409323701876152336e-04,4.916620145310284223e-04
1.040208083233293295e-09,-2.030244996194402202e-04,7.031525141704273374e-04
1.060212084833933654e-09,-2.758054680007055782e-04,7.836075201348455341e-04
1.080216086434573806e-09,-3.548295393836405900e-04,7.278168739866771372e-04
1.100220088035213958e-09,-4.352081159272162022e-04,5.388281021755411248e-04
1.120224089635854317e-09,-5.119322538935794364e-04,2.276883149123579424e-04
1.140228091236494676e-09,-5.802034968773536619e-04,-1.873034653758239422e-04
1.160232092837134829e-09,-6.357515750226987736e-04,-6.817817703679421911e-04
1.180236094437774981e-09,-6.751185124734804775e-04,-1.226859548853626459e-03
1.200240096038415340e-09,-6.958909566496609706e-04,-1.790932587355515641e-03
1.220244097639055699e-09,-6.968659377858725740e-04,-2.341628670664207441e-03
1.240248099239695851e-09,-6.781395631217755756e-04,-2.847779012261970888e-03
1.260252100840336004e-09,-6.411130712028363914e-04,-3.281289556057839698e-03
1.280256102440976363e-09,-5.884159058951401620e-04,-3.618797456896787317e-03
1.300260104041616722e-09,-5.237506884685356719e-04,-3.843012822669941101e-03
1.320264105642256874e-09,-4.516698449945285871e-04,-3.943666644333615294e-03
1.340268107242897026e-09,-3.772978848752873179e-04,-3.918011381613779529e-03
1.360272108843537385e-09,-3.060166664335827900e-04,-3.770849262003602136e-03
1.380276110444177744e-09,-2.431332268954075778e-04,-3.514093165768547144e-03
1.400280112044817897e-09,-1.935507662509900828e-04,-3.165894129373857807e-03
1.420284113645458049e-09,-1.614631040026160173e-04,-2.749396184109320976e-03
1.440288115246098408e-09,-1.500914010794594225e-04,-2.291201809927878759e-03
1.460292116846738767e-09,-1.614792600335455486e-04,-1.819648356424796243e-03
1.480296118447378919e-09,-1.963586591872702725e-04,-1.363006351993312259e-03
1.500300120048019072e-09,-2.540947738278384062e-04,-9.477140956743639391e-04
1.520304121648659431e-09,-3.327128670693242532e-04,-5.967591629786807728e-04
1.540308123249299790e-09,-4.290053984560518343e-04,-3.283067720779816773e-04
1.560312124849939942e-09,-5.387126112056290789e-04,-1.546580972695099198e-04
1.580316126450580094e-09,-6.567654189619424139e-04,-8.159971039117852913e-05
1.600320128051220453e-09,-7.775756897557815385e-04,-1.081798120739139145e-04
1.620324129651860812e-09,-8.953562418092663334e-04,-2.269194307315343839e-04
1.640328131252500965e-09,-1.004451186295001082e-03,-4.244390729200959392e-04
1.660332132853141117e-09,-1.099656770196238455e-03,-6.824551551587396949e-04
1.680336134453781476e-09,-1.176513607430534382e-03,-9.790775713978362368e-04
1.700340136054421835e-09,-1.231553082659660832e-03,-1.290321372799595537e-03
1.720344137655061987e-09,-1.262483642912573013e-03,-1.591732874419221275e-03
1.740348139255702140e-09,-1.268306467880769145e-03,-1.860024302439459380e-03
1.760352140856342499e-09,-1.249354390719855821e-03,-2.074611686455757331e-03
1.780356142456982858e-09,-1.207252652502803112e-03,-2.218957982324924229e-03
1.800360144057623010e-09,-1.144804822387808811e-03,-2.281636858602933190e-03
1.820364145658263162e-09,-1.065811709775595561e-03,-2.257051284560223844e-03
1.840368147258903521e-09,-9.748350604093147711e-04,-2.145763786418857736e-03
1.860372148859543880e-09,-8.769210269348739432e-04,-1.954420512979161435e-03
1.880376150460183826e-09,-7.773006469969905713e-04,-1.695277445657783922e-03
1.900380152060824185e-09,-6.810857205278668652e-04,-1.385362529876492952e-03
1.920384153661464544e-09,-5.929784928142027220e-04,-1.045330584682154385e-03
1.940388155262104903e-09,-5.170124328913066388e-04,-6.980871179034878757e-04
1.960392156862745262e-09,-4.563392294819625626e-04,-3.672714402451981129e-04
1.980396158463385208e-09,-4.130740550199488658e-04,-7.569786498143138778e-05
2.000400160064025567e-09,-3.882073728479690840e-04,1.561441894212562288e-04
2.020404161664665926e-09,-3.815873256995037889e-04,3.114347912257357819e-04
2.040408163265305871e-09,-3.919723135355888564e-04,3.781269134018182699e-04
2.060412164865946230e-09,-4.171490234742496845e-04,3.497387506784865397e-04
2.080416166466586589e-09,-4.541071836028171753e-04,2.257853081568507794e-04
2.100420168067226948e-09,-4.992589207727208015e-04,1.182297289088592854e-05
2.120424169667867307e-09,-5.486880150608026236e-04,-2.808943440340759242e-04
2.140428171268507253e-09,-5.984127131685838558e-04,-6.361240837964039080e-04
2.160432172869147612e-09,-6.446451809828463364e-04,-1.033662328385417245e-03
2.180436174469787971e-09,-6.840311666570830828e-04,-1.450622791748068085e-03
2.200440176070427916e-09,-7.138549671915809343e-04,-1.862885049675625047e-03
2.220444177671068276e-09,-7.321972366100879372e-04,-2.246619114351892151e-03
2.240448179271708635e-09,-7.380363784330826876e-04,-2.579788984885886347e-03
2.260452180872348994e-09,-7.312880189203192728e-04,-2.843539537003026210e-03
2.280456182472989353e-09,-7.127811174636170715e-04,-3.023378909888507597e-03
2.300460184073629298e-09,-6.841733763125943096e-04,-3.110081879654119294e-03
2.320464185674269657e-09,-6.478125025474238113e-04,-3.100257703457164841e-03
2.340468187274910016e-09,-6.065533056042616417e-04,-2.996547412357410817e-03
2.360472188875549962e-09,-5.635433694574894584e-04,-2.807439146184199843e-03
2.380476190476190321e-09,-5.219919498063660141e-04,-2.546714355148217961e-03
2.400480192076830680e-09,-4.849376980424644976e-04,-2.232561005095142284e-03
2.420484193677471039e-09,-4.550307517436328231e-04,-1.886410846982916785e-03
2.440488195278111398e-09,-4.343436669209252356e-04,-1.531575035956048766e-03
2.460492196878751344e-09,-4.242236747475767620e-04,-1.191764841438043695e-03
2.480496198479391703e-09,-4.251959580105283396e-04,-8.895911138414865993e-04
2.500500200080032062e-09,-4.369242427958468971e-04,-6.451371558354317441e-04
2.520504201680672007e-09,-4.582312096670789706e-04,-4.746946537041307084e-04
2.540508203281312366e-09,-4.871772903774721636e-04,-3.897417013237381594e-04
2.560512204881952725e-09,-5.211925838096737474e-04,-3.962263931039731036e-04
2.580516206482593084e-09,-5.572531434636710228e-04,-4.941999776988908848e-04
2.600520208083233443e-09,-5.920899803280478676e-04,-6.778213985604875655e-04
2.620524209683873389e-09,-6.224169741545809882e-04,-9.357316101168155521e-04
2.640528211284513748e-09,-6.451626291167078531e-04,-1.251772831864411727e-03
2.660532212885154107e-09,-6.576903255474237080e-04,-1.606006348288426845e-03
2.680536214485794052e-09,-6.579924249480322051e-04,-1.975963928583942229e-03
2.700540216086434412e-09,-6.448452348940113699e-04,-2.338053577659355772e-03
2.720544217687074771e-09,-6.179143281661077930e-04,-2.669031021138823425e-03
2.740548219287715130e-09,-5.778028776931421048e-04,-2.947444631482355575e-03
2.760552220888355489e-09,-5.260393140654927519e-04,-3.154963623030804243e-03
2.780556222488995434e-09,-4.650045036706444528e-04,-3.277507116698205169e-03
2.800560224089635793e-09,-3.978025356167611188e-04,-3.306104581254225121e-03
2.820564225690276152e-09,-3.280828473378057629e-04,-3.237435358475190816e-03
2.840568227290916098e-09,-2.598245805563238514e-04,-3.074015369001288113e-03
2.860572228891556457e-09,-1.970965397668289823e-04,-2.824021374921514751e-03
2.880576230492196816e-09,-1.438077660957862559e-04,-2.500765932482675123e-03
2.900580232092837175e-09,-1.034644345940411445e-04,-2.121857970068155574e-03
2.920584233693477534e-09,-7.894848645463821218e-05,-1.708103406903703752e-03
2.940588235294117480e-09,-7.233213539166081195e-05,-1.282216174623814191e-03
2.960592236894757839e-09,-8.474021687878637878e-05,-8.674214337712090033e-04
2.980596238495398198e-09,-1.162694140665923684e-04,-4.860389971491174514e-04
3.000600240096038143e-09,-1.659698770846896763e-04,-1.581356201839587703e-04
3.020604241696678502e-09,-2.318908720155342753e-04,9.967011362898724105e-05
3.040608243297318861e-09,-3.111880942002589242e-04,2.751767537875768137e-04
3.060612244897959220e-09,-4.002864078840421029e-04,3.612839684562229887e-04
3.080616246498599579e-09,-4.950882732005265196e-04,3.563510814990258750e-04
3.100620248099239525e-09,-5.912152121659617439e-04,2.642104713306002201e-04
3.120624249699879884e-09,-6.842675313796587125e-04,9.383803672685838966e-05
3.140628251300520243e-09,-7.700862963569284850e-04,-1.412954465371411882e-04
3.160632252901160188e-09,-8.450013203730036889e-04,-4.241482736615983791e-04
3.180636254501800547e-09,-9.060497075465611880e-04,-7.352461677060527674e-04
3.200640256102440907e-09,-9.511512312545023244e-04,-1.053961010777032005e-03
3.220644257703081266e-09,-9.792294305565386360e-04,-1.359847536100409690e-03
3.240648259303721625e-09,-9.902706112870668809e-04,-1.633952452241679149e-03
3.260652260904361570e-09,-9.853167431415794930e-04,-1.860012787675507581e-03
3.280656262505001929e-09,-9.663923162610905037e-04,-2.025467818247484071e-03
3.300660264105642288e-09,-9.363693101689840766e-04,-2.122221266062458613e-03
3.320664265706282234e-09,-8.987782823601121046e-04,-2.147106732811176946e-03
3.340668267306922593e-09,-8.575769650696359438e-04,-2.102028504989274932e-03
3.360672268907562952e-09,-8.168904568919154894e-04,-1.993770716252506268e-03
3.380676270508203311e-09,-7.807389424917593381e-04,-1.833489046723600462e-03
3.400680272108843670e-09,-7.527697519500649607e-04,-1.635919337986151655e-03
3.420684273709483615e-09,-7.360104236254716653e-04,-1.418355432150286092e-03
3.440688275310123975e-09,-7.326582657368970776e-04,-1.199463078913736878e-03
3.460692276910764334e-09,-7.439197895361886019e-04,-9.980069901348840884e-04
3.480696278511404279e-09,-7.699104366837615857e-04,-8.315734263819910769e-04
3.500700280112044638e-09,-8.096214217768833363e-04,-7.153707572140055853e-04
3.520704281712684997e-09,-8.609564744976494662e-04,-6.611852619082583251e-04
3.540708283313325356e-09,-9.208370380557766082e-04,-6.765593752894077028e-04
3.560712284913965715e-09,-9.853703171449235566e-04,-7.642452864252385469e-04
3.580716286514605661e-09,-1.050070721763776953e-03,-9.219691830093003360e-04
3.600720288115246020e-09,-1.110121956521501916e-03,-1.142521623826227512e-03
3.620724289715886379e-09,-1.160664459120046505e-03,-1.414168772722462991e-03
3.640728291316526324e-09,-1.197091252204917711e-03,-1.721358851651228362e-03
3.660732292917166683e-09,-1.215334640849296578e-03,-2.045679451323004477e-03
3.680736294517807043e-09,-1.212126604140243693e-03,-2.367005450879496216e-03
3.700740296118447402e-09,-1.185217171193204272e-03,-2.664765235882873493e-03
3.720744297719087761e-09,-1.133537455296773156e-03,-2.919245416068190317e-03
3.740748299319727706e-09,-1.057297204091738529e-03,-3.112851790116840690e-03
3.760752300920367652e-09,-9.580105199785148061e-04,-3.231247025849924657e-03
3.780756302521008424e-09,-8.384475879378637357e-04,-3.264293236988122411e-03
3.800760304121648370e-09,-7.025145691908880018e-04,-3.206739845589376414e-03
3.820764305722289142e-09,-5.550680220504583887e-04,-3.058613045709870307e-03
3.840768307322929088e-09,-4.016740466500417703e-04,-2.825281821387216289e-03
3.860772308923569033e-09,-2.483255909130135399e-04,-2.517195646778967039e-03
3.880776310524209806e-09,-1.011338098427056679e-04,-2.149309441871384823e-03
3.900780312124849751e-09,3.398910521353987565e-05,-1.740230794554059428e-03
3.920784313725490524e-09,1.516377048189799116e-04,-1.311141677415463610e-03
3.940788315326130470e-09,2.471942854222706218e-04,-8.845608167492476082e-04
3.960792316926770415e-09,3.170672901811182618e-04,-4.830226526962822734e-04
3.980796318527411188e-09,3.588737486551821774e-04,-1.277538661638714294e-04
4.000800320128051133e-09,3.715556379432975558e-04,1.625715583183609439e-04
4.020804321728691079e-09,3.554238647846872756e-04,3.729227968227155892e-04
4.040808323329331851e-09,3.121277349593842474e-04,4.927819671275416495e-04
4.060812324929971797e-09,2.445520469053750773e-04,5.167408152288181702e-04
4.080816326530611742e-09,1.566480698881957709e-04,4.447888923653206322e-04
4.100820328131252515e-09,5.320840252236086395e-05,2.822769322600829117e-04
4.120824329731892460e-09,-6.040116142633092725e-05,3.955919298479174009e-05
4.140828331332533233e-09,-1.785372854788461715e-04,-2.686617379428381377e-04
4.160832332933173179e-09,-2.955853543673696597e-04,-6.242459879265402139e-04
4.180836334533813124e-09,-4.062590023335532329e-04,-1.006726085704415675e-03
4.200840336134453897e-09,-5.058761276808197401e-04,-1.394546182362213851e-03
4.220844337735093842e-09,-5.905961514537625984e-04,-1.766354140986560678e-03
4.240848339335734615e-09,-6.576056819764321574e-04,-2.102267059426262200e-03
4.260852340936374560e-09,-7.052428691689472317e-04,-2.385032956894722785e-03
4.280856342537014506e-09,-7.330543824862270630e-04,-2.601018295952633140e-03
4.300860344137655278e-09,-7.417829040625358462e-04,-2.740962268917902268e-03
4.320864345738295224e-09,-7.332870583348846671e-04,-2.800453627674592046e-03
4.340868347338935169e-09,-7.103995634639590981e-04,-2.780103334063540634e-03
4.360872348939575942e-09,-6.767328631437345308e-04,-2.685405350625897757e-03
4.380876350540215887e-09,-6.364443805321128803e-04,-2.526297284497145725e-03
4.400880352140855833e-09,-5.939756670875283957e-04,-2.316451131724820908e-03
4.420884353741496606e-09,-5.537809827702003165e-04,-2.072340896698117441e-03
4.440888355342136551e-09,-5.200611781035057325e-04,-1.812147365028909940e-03
4.460892356942777324e-09,-4.965181468718837332e-04,-1.554569965923686091e-03
4.480896358543417269e-09,-4.861436304715780724e-04,-1.317620894366145412e-03
4.500900360144057215e-09,-4.910538830100697697e-04,-1.117477176176674344e-03
4.520904361744697987e-09,-5.123787974442456936e-04,-9.674621484566739166e-04
4.540908363345337933e-09,-5.502107305901267863e-04,-8.772191870065776951e-04
4.560912364945978705e-09,-6.036146564239116847e-04,-8.521280086545668202e-04
4.580916366546618651e-09,-6.706976420405223564e-04,-8.929983152833469466e-04
4.600920368147258596e-09,-7.487321964871419865e-04,-9.960579188172309119e-04
4.620924369747899369e-09,-8.343249921008972060e-04,-1.153233906523786628e-03
4.640928371348539315e-09,-9.236199766639188822e-04,-1.352707040212602430e-03
4.660932372949179260e-09,-1.012523121148971913e-03,-1.579702577131873210e-03
4.680936374549820033e-09,-1.096935075487965108e-03,-1.817466108289417801e-03
4.700940376150459978e-09,-1.172977876973081354e-03,-2.048361727859073205e-03
4.720944377751099924e-09,-1.237202563908015081e-03,-2.255022559125993090e-03
4.740948379351740696e-09,-1.286766031570230756e-03,-2.421480798049185056e-03
4.760952380952380642e-09,-1.319567622707185951e-03,-2.534206145789085884e-03
4.780956382553021414e-09,-1.334338625797823518e-03,-2.582987650436068851e-03
4.800960384153661360e-09,-1.330680886612213435e-03,-2.561604153135474231e-03
4.820964385754301305e-09,-1.309053929138126590e-03,-2.468242073311888943e-03
4.840968387354942078e-09,-1.270713131315348273e-03,-2.305635304200743911e-03
4.860972388955582023e-09,-1.217604415886666637e-03,-2.080919505391214206e-03
4.880976390556222796e-09,-1.152223421617917408e-03,-1.805210969735586120e-03
4.900980392156862742e-09,-1.077449068253216952e-03,-1.492937387709539340e-03
4.920984393757502687e-09,-9.963627101594054424e-04,-1.160963166954408080e-03
4.940988395358143460e-09,-9.120646224590659270e-04,-8.275645423778938249e-04
4.960992396958783405e-09,-8.274993603041738525e-04,-5.113187655296967888e-04
4.980996398559423351e-09,-7.453006050377665882e-04,-2.299766491171034201e-04
5.001000400160064123e-09,-6.676645335984115462e-04,6.116205981896868533e-07
5.021004401760704069e-09,-5.962586327104661688e-04,1.674512144286389277e-04
5.041008403361344014e-09,-5.321703723771922280e-04,2.611795666415906922e-04
5.061012404961984787e-09,-4.758974217069683642e-04,2.766184931514257964e-04
5.081016406562624732e-09,-4.273783135631953876e-04,2.130688055560965599e-04
5.101020408163265505e-09,-3.860598224952791987e-04,7.433088824807241354e-05
5.121024409763905450e-09,-3.509949812031354865e-04,-1.315481995709664098e-04
5.141028411364545396e-09,-3.209637709374153162e-04,-3.927836024524082289e-04
5.161032412965186169e-09,-2.946071963992819898e-04,-6.945843177799974552e-04
5.181036414565826114e-09,-2.705647736338236088e-04,-1.020060878134772947e-03
