# Time (s),DUT (V),TEM (V)
0.000000000000000000e+00,-1.252025988577172089e-03,5.913207433165014459e-04
2.000285795941697536e-11,-1.161198452678649995e-03,7.283044005181978564e-04
4.000571591883395072e-11,-1.055301245244113237e-03,8.348965389955276912e-04
6.000857387825092932e-11,-9.376448576310271324e-04,9.067396536682054402e-04
8.001143183766790145e-11,-8.118975685926430302e-04,9.403722844879303664e-04
1.000142897970848736e-10,-6.819428674783118913e-04,9.334750664845390278e-04
1.200171477565018586e-10,-5.517261411257016156e-04,8.850809297648076822e-04
1.400200057159188178e-10,-4.250977242207284578e-04,7.957326731632988160e-04
1.600228636753358029e-10,-3.056597047734423058e-04,6.675733395854122803e-04
1.800257216347527880e-10,-1.966237853777941756e-04,5.043581581894255325e-04
2.000285795941697472e-10,-1.006870263880530993e-04,3.113811124770759445e-04
2.200314375535867322e-10,-1.993145957520789586e-05,9.531419642068093801e-05
2.400342955130037173e-10,4.424759892594008450e-05,-1.360371718258744232e-04
2.600371534724207023e-10,9.118113038188532153e-05,-3.740536403356205784e-04
2.800400114318376357e-10,1.209320955450336499e-04,-6.096822090173086234e-04
3.000428693912546207e-10,1.342671376578268223e-04,-8.338586814203315491e-04
3.200457273506716058e-10,1.325959535091511933e-04,-1.037950105980338378e-03
3.400485853100885908e-10,1.178816245498178871e-04,-1.214192723585964372e-03
3.600514432695055759e-10,9.252667395314574759e-05,-1.356100070478819235e-03
3.800543012289225093e-10,5.924083795458443897e-05,-1.458816566346949738e-03
4.000571591883394943e-10,2.089744385034781254e-05,-1.519394160725550573e-03
4.200600171477564794e-10,-1.961417698972631342e-05,-1.536973330061966328e-03
4.400628751071734644e-10,-5.953267432503587864e-05,-1.512854729341130567e-03
4.600657330665904495e-10,-9.635776239931265316e-05,-1.450453834228114958e-03
4.800685910260074345e-10,-1.279657583280733625e-04,-1.355137617507004479e-03
5.000714489854243679e-10,-1.527019430061705605e-04,-1.233949289576945565e-03
5.200743069448414046e-10,-1.694454200213049288e-04,-1.095233970461896751e-03
5.400771649042583380e-10,-1.776436805912747776e-04,-9.481844213011919858e-04
5.600800228636752714e-10,-1.773157542366349455e-04,-8.023312424060070371e-04
5.800828808230923081e-10,-1.690245426648647180e-04,-6.670058893414895860e-04
6.000857387825092415e-10,-1.538206026112527150e-04,-5.508071891553550621e-04
6.200885967419262782e-10,-1.331611695191202524e-04,-4.611025705257231454e-04
6.400914547013432116e-10,-1.088095134854291928e-04,-4.035938764260847515e-04
6.600943126607601449e-10,-8.272072035331811367e-05,-3.819744428491464992e-04
6.800971706201771817e-10,-5.692063973384577612e-05,-3.976992541242100124e-04
7.001000285795941150e-10,-3.338500374013494434e-05,-4.498836843031357377e-04
7.201028865390111518e-10,-1.392558304396442634e-05,-5.353389589176171890e-04
7.401057444984280852e-10,-8.972099952178141057e-08,-6.487444500043264804e-04
7.601086024578450185e-10,6.921295353276441585e-06,-7.829487263667624184e-04
7.801114604172620553e-10,6.310753713023275528e-06,-9.293834174929536084e-04
8.001143183766789886e-10,-2.280931104520642153e-06,-1.078566900038170281e-03
8.201171763360960254e-10,-1.877091823737007305e-05,-1.220669026380763857e-03
8.401200342955129587e-10,-4.265555639933156029e-05,-1.346103962576900102e-03
8.601228922549298921e-10,-7.305698531205933254e-05,-1.446115971643055931e-03
8.801257502143469288e-10,-1.087913331304182253e-04,-1.513322838308194885e-03
9.001286081737638622e-10,-1.484538723225288775e-04,-1.542183628745453844e-03
9.201314661331808990e-10,-1.905155340762437212e-04,-1.529361528609883862e-03
9.401343240925978323e-10,-2.334245594531907846e-04,-1.473958393007824240e-03
9.601371820520148691e-10,-2.757068194371152959e-04,-1.377605044521705395e-03
9.801400400114316990e-10,-3.160584789520170189e-04,-1.244399843781594057e-03
1.000142897970848736e-09,-3.534252023028617846e-04,-1.080697131588567554e-03
1.020145755930265773e-09,-3.870629675352063874e-04,-8.947562586697418996e-04
1.040148613889682809e-09,-4.165767227490346563e-04,-6.962705240384906881e-04
1.060151471849099639e-09,-4.419345089086060122e-04,-4.958029036318020288e-04
1.080154329808516676e-09,-4.634562083167825548e-04,-3.041614910796073211e-04
1.100157187767933713e-09,-4.817776643271859459e-04,-1.317517015537865736e-04
1.120160045727350543e-09,-4.977924615355987410e-04,1.205577200901288872e-05
1.140162903686767579e-09,-5.125750644553346558e-04,1.195026634092086529e-04
1.160165761646184616e-09,-5.272902021122472145e-04,1.849306639545288957e-04
1.180168619605601446e-09,-5.430942843612024873e-04,2.051479136239397734e-04
1.200171477565018483e-09,-5.610351882190981691e-04,1.796505005370098733e-04
1.220174335524435520e-09,-5.819569244995999313e-04,1.106834823730443374e-04
1.240177193483852556e-09,-6.064154741584982860e-04,3.135467862091716282e-06
1.260180051443269386e-09,-6.346114807191164092e-04,-1.357291846633181258e-04
1.280182909402686423e-09,-6.663445331732936305e-04,-2.966865834048124139e-04
1.300185767362103460e-09,-7.009925267475500916e-04,-4.690947654141394913e-04
1.320188625321520290e-09,-7.375181184019381515e-04,-6.415293153497238221e-04
1.340191483280937327e-09,-7.745026849240647764e-04,-8.024759063334121600e-04
1.360194341240354363e-09,-8.102065376508989008e-04,-9.410385565758148940e-04
1.380197199199771400e-09,-8.426525460629001336e-04,-1.047620865083027757e-03
1.400200057159188230e-09,-8.697288672064454936e-04,-1.114538525200305108e-03
1.420202915118605267e-09,-8.893052556566490192e-04,-1.136524986017467412e-03
1.440205773078022304e-09,-8.993565131021469521e-04,-1.111098054665786905e-03
1.460208631037439134e-09,-8.980860838759317875e-04,-1.038763178466066417e-03
1.480211488996856170e-09,-8.840426484742847178e-04,-9.230386595314682245e-04
1.500214346956273207e-09,-8.562228240784889493e-04,-7.702985803741673344e-04
1.520217204915690037e-09,-8.141537384227536846e-04,-5.894401342794771802e-04
1.540220062875107074e-09,-7.579502669688114973e-04,-3.913927050689396028e-04
1.560222920834524111e-09,-6.883430578660133109e-04,-1.884957824197188076e-04
1.580225778793941147e-09,-6.066750409747083145e-04,6.218965997110211148e-06
1.600228636753357977e-09,-5.148658386056387997e-04,1.797999283596103139e-04
1.620231494712775014e-09,-4.153452697663238781e-04,3.201567509437184926e-04
1.640234352672192051e-09,-3.109588662049212805e-04,4.168040413835741417e-04
1.660237210631608881e-09,-2.048498991569355429e-04,4.615227430843150177e-04
1.680240068591025917e-09,-1.003237599797848409e-04,4.488986870659886675e-04
1.700242926550442954e-09,-7.015683621495671610e-07,3.767046305538235143e-04
1.720245784509859784e-09,9.082946143651560536e-05,2.461009793936980508e-04
1.740248642469276821e-09,1.713611218045748641e-04,6.164085291156191958e-05
1.760251500428693858e-09,2.383971903045446392e-04,-1.689234249283737873e-04
1.780254358388110894e-09,2.899672996032865943e-04,-4.350236085935146532e-04
1.800257216347527724e-09,3.247157046829740254e-04,-7.238284793700195188e-04
1.820260074306944761e-09,3.419602781449203300e-04,-1.020936125001077263e-03
1.840262932266361798e-09,3.417186491535590016e-04,-1.311166694371599826e-03
1.860265790225778628e-09,3.247001579222823795e-04,-1.579410473649979323e-03
1.880268648185195665e-09,2.922641276158356835e-04,-1.811482450364702455e-03
1.900271506144612495e-09,2.463467568896739179e-04,-1.994933708574973385e-03
1.920274364104029738e-09,1.893606083427237872e-04,-2.119772101817816567e-03
1.940277222063446568e-09,1.240721175880688670e-04,-2.179049576838937470e-03
1.960280080022863398e-09,5.346369376185175850e-05,-2.169280997069534568e-03
1.980282937982280642e-09,-1.941223833226541520e-05,-2.090668913427088695e-03
2.000285795941697472e-09,-9.157953415663083144e-05,-1.947119895222640352e-03
2.020288653901114715e-09,-1.602773016176247940e-04,-1.746050113151731767e-03
2.040291511860531545e-09,-2.230843695242099175e-04,-1.497990148982625757e-03
2.060294369819948375e-09,-2.780229484681259267e-04,-1.216010766369794239e-03
2.080297227779365619e-09,-3.236363990708139137e-04,-9.150019156335308318e-04
2.100300085738782449e-09,-3.590375131490972549e-04,-6.108459333850625424e-04
2.120302943698199279e-09,-3.839253896088766493e-04,-3.195322141002078617e-04
2.140305801657616522e-09,-3.985707523617786725e-04,-5.626419285874213478e-05
2.160308659617033352e-09,-4.037713111561124120e-04,1.653899332945726452e-04
2.180311517576450182e-09,-4.007804079507344404e-04,3.342537471001362720e-04
2.200314375535867426e-09,-3.912136282877129358e-04,4.421627284684764175e-04
2.220317233495284255e-09,-3.769392082724555061e-04,4.844121448380462160e-04
2.240320091454701085e-09,-3.599588694180073803e-04,4.600069092957094746e-04
2.260322949414118329e-09,-3.422861225201089897e-04,3.716991234016626066e-04
2.280325807373535159e-09,-3.258290777238204085e-04,2.258113889215145108e-04
2.300328665332951989e-09,-3.122843850137292524e-04,3.185645430377989943e-05
2.320331523292369232e-09,-3.030481353769531264e-04,-1.980243804938716667e-04
2.340334381251786062e-09,-2.991484279009029731e-04,-4.497711449176631702e-04
2.360337239211202892e-09,-3.012029213236941286e-04,-7.082218246017848388e-04
2.380340097170620136e-09,-3.094031243817578014e-04,-9.579880654330423431e-04
2.400342955130036966e-09,-3.235255321128488633e-04,-1.184338973269298545e-03
2.420345813089454209e-09,-3.429680839853037648e-04,-1.374041722776022951e-03
2.440348671048871039e-09,-3.668089018917908392e-04,-1.516110404970011502e-03
2.460351529008287869e-09,-3.938829520884673313e-04,-1.602420112916021384e-03
2.480354386967705113e-09,-4.228712430049917366e-04,-1.628151351249400433e-03
2.500357244927121943e-09,-4.523964813031762251e-04,-1.592039970787126855e-03
2.520360102886538773e-09,-4.811188016881043535e-04,-1.496419367205109770e-03
2.540362960845956016e-09,-5.078252787070708200e-04,-1.347053951785924780e-03
2.560365818805372846e-09,-5.315074138771626495e-04,-1.152775169848781721e-03
2.580368676764789676e-09,-5.514216379746452986e-04,-9.249428781621972517e-04
2.600371534724206920e-09,-5.671290232735888776e-04,-6.767650120980096221e-04
2.620374392683623750e-09,-5.785117922074700658e-04,-4.225165794786160840e-04
2.640377250643040580e-09,-5.857657510724847234e-04,-1.767046369990781267e-04
2.660380108602457823e-09,-5.893693743257819202e-04,4.677128596972710917e-05
2.680382966561874653e-09,-5.900318174211643691e-04,2.354140049313528042e-04
2.700385824521291483e-09,-5.886235469449443373e-04,3.788325174435009778e-04
2.720388682480708727e-09,-5.860944572249879086e-04,4.693144605789012166e-04
2.740391540440125557e-09,-5.833852173421519380e-04,5.022349775982609720e-04
2.760394398399542800e-09,-5.813381045667450567e-04,4.762798291241746159e-04
2.780397256358959630e-09,-5.806136944751302950e-04,3.934718711635731381e-04
2.800400114318376460e-09,-5.816194832854944307e-04,2.590018611022658498e-04
2.820402972277793704e-09,-5.844558281825055395e-04,8.087622485256046974e-05
2.840405830237210534e-09,-5.888835448439746307e-04,-1.305947803756396411e-04
2.860408688196627364e-09,-5.943161585984998996e-04,-3.634357895590714497e-04
2.880411546156044607e-09,-5.998382460574103398e-04,-6.047320060048407995e-04
2.900414404115461437e-09,-6.042496213815854627e-04,-8.413971703370874472e-04
2.920417262074878267e-09,-6.061334180597442852e-04,-1.060937192088993227e-03
2.940420120034295511e-09,-6.039444984081917015e-04,-1.252163695541698820e-03
2.960422977993712341e-09,-5.961131905968029918e-04,-1.405815387057568217e-03
2.980425835953129171e-09,-5.811581987762975271e-04,-1.515051332588787138e-03
3.000428693912546414e-09,-5.578017323636591052e-04,-1.575788540207820592e-03
3.020431551871963244e-09,-5.250795120922788651e-04,-1.586866144587553446e-03
3.040434409831380074e-09,-4.824383655651150898e-04,-1.550029365092040444e-03
3.060437267790797318e-09,-4.298146301399865111e-04,-1.469737577728307074e-03
3.080440125750214148e-09,-3.676875154894091390e-04,-1.352811611556109777e-03
3.100442983709630978e-09,-2.971028954691117734e-04,-1.207945089700992493e-03
3.120445841669048221e-09,-2.196646286055620016e-04,-1.045112691716167802e-03
3.140448699628465051e-09,-1.374923582230167245e-04,-8.749141322725466135e-04
3.160451557587882295e-09,-5.314671168597205890e-05,-7.078960819095315255e-04
3.180454415547299125e-09,3.047521082249744521e-05,-5.538950070177739438e-04
3.200457273506715955e-09,1.102693107762841668e-04,-4.214419549348294458e-04
3.220460131466133198e-09,1.830725514064982049e-04,-3.172658016193581924e-04
3.240462989425550028e-09,2.458219228823531831e-04,-2.459247185242313910e-04
3.260465847384966858e-09,2.957157405644685239e-04,-2.095870459951471010e-04
3.280468705344384102e-09,3.303682858775318170e-04,-2.079729375915254487e-04
3.300471563303800931e-09,3.479488891505549378e-04,-2.384576935460208495e-04
3.320474421263217761e-09,3.472971582143857035e-04,-2.963272982058071992e-04
3.340477279222635005e-09,3.280071523342629396e-04,-3.751669754660539257e-04
3.360480137182051835e-09,2.904748360631175387e-04,-4.673551898451251620e-04
3.380482995141468665e-09,2.359050434011892032e-04,-5.646289747071058960e-04
3.400485853100885908e-09,1.662763386002671061e-04,-6.586821699313880323e-04
3.420488711060302738e-09,8.426445863436225043e-05,-7.417563614409885663e-04
3.440491569019719568e-09,-6.872663959799342969e-06,-8.071851363280947321e-04
3.460494426979136812e-09,-1.034431013753324912e-04,-8.498556352406022541e-04
3.480497284938553642e-09,-2.014952021584222937e-04,-8.665570715801641094e-04
3.500500142897970885e-09,-2.970091845613143534e-04,-8.561935209558590651e-04
3.520503000857387715e-09,-3.860961584334882232e-04,-8.198473669431021642e-04
3.540505858816804545e-09,-4.651940656807745044e-04,-7.606897316377622502e-04
3.560508716776221789e-09,-5.312499833807335283e-04,-6.837443788185890376e-04
3.580511574735638619e-09,-5.818787710705954769e-04,-5.955212976306244708e-04
3.600514432695055449e-09,-6.154891444032761089e-04,-5.035448280486527328e-04
3.620517290654472692e-09,-6.313698692092973175e-04,-4.158082169511085409e-04
3.640520148613889522e-09,-6.297308114568316365e-04,-3.401914405086903931e-04
3.660523006573306352e-09,-6.116959428609792778e-04,-2.838816729703703360e-04
3.680525864532723596e-09,-5.792479625808692528e-04,-2.528357557403949885e-04
3.700528722492140426e-09,-5.351268134788440996e-04,-2.513214204196426637e-04
3.720531580451557256e-09,-4.826869026741837385e-04,-2.815690068400431402e-04
3.740534438410974499e-09,-4.257201394660534892e-04,-3.435583087196733532e-04
3.760537296370391329e-09,-3.682538489269582705e-04,-4.349564272818892468e-04
3.780540154329808159e-09,-3.143340947390184858e-04,-5.512126756246911018e-04
3.800543012289224989e-09,-2.678058631447316615e-04,-6.858062838377512217e-04
3.820545870248642646e-09,-2.321018641534754678e-04,-8.306325683992877998e-04
3.840548728208059476e-09,-2.100513727835828911e-04,-9.765040002852528331e-04
3.860551586167476306e-09,-2.037195736369900602e-04,-1.113734833537389840e-03
3.880554444126893136e-09,-2.142863328163510856e-04,-1.232772148500768791e-03
3.900557302086309966e-09,-2.419712809681713410e-04,-1.324832707260279819e-03
3.920560160045726796e-09,-2.860096573798513926e-04,-1.382504150605006442e-03
3.940563018005144453e-09,-3.446806675926691204e-04,-1.400270859922093502e-03
3.960565875964561283e-09,-4.153872915945669864e-04,-1.374929168272936162e-03
3.980568733923978113e-09,-4.947836996770267615e-04,-1.305863272997877115e-03
4.000571591883394943e-09,-5.789438410297836337e-04,-1.195161769594203609e-03
4.020574449842811773e-09,-6.635625093666346194e-04,-1.047564662069364137e-03
4.040577307802229430e-09,-7.441783862670125864e-04,-8.702413869405443893e-04
4.060580165761646260e-09,-8.164073179948270901e-04,-6.724111435332803506e-04
4.080583023721063090e-09,-8.761734666104086791e-04,-4.648269700860752150e-04
4.100585881680479920e-09,-9.199260281630893205e-04,-2.591538951766084349e-04
4.120588739639896750e-09,-9.448299299893809719e-04,-6.727855402118869594e-05
4.140591597599313580e-09,-9.489202692009062650e-04,9.940757215292755347e-05
4.160594455558731237e-09,-9.312121639432709066e-04,2.307069781214052782e-04
4.180597313518148067e-09,-8.917600554337273919e-04,3.182533138888048174e-04
4.200600171477564897e-09,-8.316631940814063918e-04,3.560465810041939737e-04
4.220603029436981727e-09,-7.530169205698186317e-04,3.408519330877941844e-04
4.240605887396398557e-09,-6.588122556052094635e-04,2.724358060160141483e-04
4.260608745355815387e-09,-5.527890813286312575e-04,1.536229590440904948e-04
4.280611603315233044e-09,-4.392506814547836856e-04,-9.831023419506793276e-06
4.300614461274649874e-09,-3.228494698650348450e-04,-2.095458175513089055e-04
4.320617319234066704e-09,-2.083552656076152678e-04,-4.349839564897266752e-04
4.340620177193483534e-09,-1.004183824630994529e-04,-6.740527107464690205e-04
4.360623035152900364e-09,-3.340043981957241653e-06,-9.138044934414985389e-04
4.380625893112317194e-09,7.913780231687286251e-05,-1.141193660497948851e-03
4.400628751071734851e-09,1.440122899512513797e-04,-1.343843780353777854e-03
4.420631609031151681e-09,1.891597615637578258e-04,-1.510778481965708610e-03
4.440634466990568511e-09,2.134291087566832169e-04,-1.633070933321904925e-03
4.460637324949985341e-09,2.166837746702716548e-04,-1.704371753424369432e-03
4.480640182909402171e-09,1.997906677413032058e-04,-1.721282440761808972e-03
4.500643040868819828e-09,1.645571124703775650e-04,-1.683550772929703334e-03
4.520645898828236658e-09,1.136197611911007356e-04,-1.594075524162373581e-03
4.540648756787653488e-09,5.029195550323465675e-05,-1.458719590545817573e-03
4.560651614747070318e-09,-2.162178351595535813e-05,-1.285942479753998235e-03
4.580654472706487148e-09,-9.803376027509517327e-05,-1.086274374269733615e-03
4.600657330665903978e-09,-1.747921165820819631e-04,-8.716639090548218213e-04
4.620660188625321635e-09,-2.478988929751519158e-04,-6.547397894350705846e-04
4.640663046584738465e-09,-3.137153773248878069e-04,-4.480319031585831249e-04
4.660665904544155295e-09,-3.691438230603538121e-04,-2.632002929092597276e-04
4.680668762503572125e-09,-4.117760610177092053e-04,-1.103200662173720134e-04
4.700671620462988955e-09,-4.400014824165828951e-04,2.732971017254511514e-06
4.720674478422405785e-09,-4.530692221990584236e-04,7.075727583280612691e-05
4.740677336381823442e-09,-4.511019864832097113e-04,9.153099731355861387e-05
4.760680194341240272e-09,-4.350616957388058013e-04,6.592823182208798439e-05
4.780683052300657102e-09,-4.066698015806268179e-04,-2.161763765864879033e-06
4.800685910260073932e-09,-3.682876282755222306e-04,-1.061079340945011084e-04
4.820688768219490762e-09,-3.227642506590958169e-04,-2.369867662036370605e-04
4.840691626178908419e-09,-2.732611285556104503e-04,-3.841798467729994927e-04
4.860694484138325249e-09,-2.230638810381475640e-04,-5.360823741444134842e-04
4.880697342097742079e-09,-1.753921408372170689e-04,-6.808781353146019667e-04
4.900700200057158909e-09,-1.332183539601511715e-04,-8.073319672210164943e-04
4.920703058016575739e-09,-9.910569265235820652e-05,-9.055492672019271015e-04
4.940705915975992569e-09,-7.507397742159894376e-05,-9.676538115372874168e-04
4.960708773935410226e-09,-6.250073498548908407e-05,-9.883399003531734978e-04
4.980711631894827056e-09,-6.206236079943052352e-05,-9.652623975245433821e-04
5.000714489854243886e-09,-7.371793612452280100e-05,-8.992381257462046936e-04
5.020717347813660716e-09,-9.673571341084887063e-05,-7.942437112323745682e-04
5.040720205773077546e-09,-1.297597789000861279e-04,-6.572076386743251619e-04
5.060723063732494376e-09,-1.709120737098702449e-04,-4.976071951623282008e-04
5.080725921691912033e-09,-2.179229388116461850e-04,-3.268933506068347726e-04
5.100728779651328863e-09,-2.682817606763591295e-04,-1.577776689327089793e-04
5.120731637610745693e-09,-3.193982225840172784e-04,-3.424372482759290189e-06
5.140734495570162523e-09,-3.687641704288274584e-04,1.234028848662831602e-04
5.160737353529579353e-09,-4.141062058750348703e-04,2.111865625228831532e-04
5.180740211488997010e-09,-4.535198130383885596e-04,2.504399566738020047e-04
