# Time (s),DUT (V),TEM (V)
0.000000000000000000e+00,-1.426093191266309236e-03,1.142755700418370294e-03
2.000400160064025567e-11,-1.366713525324469991e-03,6.899295682543821759e-04
4.000800320128051133e-11,-1.284278743107761115e-03,2.765926561274139402e-04
6.001200480192076700e-11,-1.181880029566597171e-03,-7.601437733913363410e-05
8.001600640256102266e-11,-1.063475896087797421e-03,-3.497954689728973213e-04
1.000200080032012783e-10,-9.337009767290626282e-04,-5.308695669111028080e-04
1.200240096038415340e-10,-7.976394349415271822e-04,-6.103904068950002666e-04
1.400280112044817897e-10,-6.605752816085773286e-04,-5.850660614007970701e-04
1.600320128051220453e-10,-5.277332051404582877e-04,-4.573471764146632974e-04
1.800360144057623010e-10,-4.040240369556008580e-04,-2.352731531455102523e-04
2.000400160064025567e-10,-2.938086905965674026e-04,6.801354387233593513e-05
2.200440176070428123e-10,-2.006933370051762315e-04,4.350545533468718894e-04
2.400480192076830680e-10,-1.273667755367468961e-04,8.451155876216563190e-04
2.600520208083233237e-10,-7.548853616120421292e-05,1.275415323269642838e-03
2.800560224089635793e-10,-4.563334531264221769e-05,1.702468094905103691e-03
3.000600240096038350e-10,-3.729437616720496880e-05,2.103458692684209794e-03
3.200640256102440907e-10,-4.894437160287649219e-05,2.457566014609724458e-03
3.400680272108843463e-10,-7.815046909439557271e-05,2.747155879831837417e-03
3.600720288115246020e-10,-1.217355606643619144e-04,2.958771725841914148e-03
3.800760304121648577e-10,-1.759764608393397218e-04,3.083864650373110798e-03
4.000800320128051133e-10,-2.368271779619161193e-04,3.119220514571439951e-03
4.200840336134453690e-10,-3.001543007083723328e-04,3.067060581900771417e-03
4.400880352140856247e-10,-3.619709921977142669e-04,2.934812262783601054e-03
4.600920368147258803e-10,-4.186563530342314035e-04,2.734566727152271462e-03
4.800960384153661360e-10,-4.671479495946770388e-04,2.482259195085441839e-03
5.001000400160063916e-10,-5.050970372347175124e-04,2.196624455241381370e-03
5.201040416166466473e-10,-5.309783313063314199e-04,1.897993575354731252e-03
5.401080432172869030e-10,-5.441489492106333205e-04,1.607007051711432585e-03
5.601120448179271586e-10,-5.448541959763669685e-04,1.343324246559755375e-03
5.801160464185674143e-10,-5.341810106642125690e-04,1.124408625905855708e-03
6.001200480192076700e-10,-5.139629437570777731e-04,9.644630823482421966e-04
6.201240496198479256e-10,-4.866433162948811649e-04,8.735798566330730489e-04
6.401280512204881813e-10,-4.551055575082369777e-04,8.571558835271519006e-04
6.601320528211284370e-10,-4.224814943673453962e-04,9.156076465575225046e-04
6.801360544217686926e-10,-3.919494745750989970e-04,1.044400880035272535e-03
7.001400560224089483e-10,-3.665345861043077308e-04,1.234390871776430264e-03
7.201440576230492040e-10,-3.489228778051383013e-04,1.472449908202463562e-03
7.401480592236894596e-10,-3.413004181274114941e-04,1.742340748258950234e-03
7.601520608243297153e-10,-3.452263264105087746e-04,2.025779995354645181e-03
7.801560624249699710e-10,-3.615466849933040737e-04,2.303623770975458257e-03
8.001600640256102266e-10,-3.903536326735206367e-04,2.557100870099752749e-03
8.201640656262504823e-10,-4.309911145339646497e-04,2.769016022505647965e-03
8.401680672268907380e-10,-4.821058950382159933e-04,2.924848131142816516e-03
8.601720688275309936e-10,-5.417397063975922878e-04,3.013675247675797787e-03
8.801760704281712493e-10,-6.074559681920504214e-04,3.028869129231305350e-03
9.001800720288115050e-10,-6.764925225312278141e-04,2.968516795659705693e-03
9.201840736294517606e-10,-7.459303981242367118e-04,2.835543657353091062e-03
9.401880752300919129e-10,-8.128678270506893219e-04,2.637531439078819127e-03
9.601920768307322720e-10,-8.745886298160628373e-04,2.386243126414566446e-03
9.801960784313726310e-10,-9.287146548135520943e-04,2.096885332847815871e-03
1.000200080032012783e-09,-9.733331628860713300e-04,1.787154708177785293e-03
1.020204081632652936e-09,-1.007091802622470328e-03,1.476128288115537233e-03
1.040208083233293295e-09,-1.029256010261509402e-03,1.183067212083661933e-03
1.060212084833933654e-09,-1.039726146718274831e-03,9.262084369546963632e-04
1.080216086434573806e-09,-1.039014293696160053e-03,7.216196436270587173e-04
1.100220088035213958e-09,-1.028183204921261822e-03,5.821884523927428178e-04
1.120224089635854317e-09,-1.008752284918252532e-03,5.168086000968627209e-04
1.140228091236494676e-09,-9.825774981292330606e-04,5.298134241572120297e-04
1.160232092837134829e-09,-9.517136704645877930e-04,6.206916173891539445e-04
1.180236094437774981e-09,-9.182686393811446794e-04,7.841027213450582926e-04
1.200240096038415340e-09,-8.842590797430284564e-04,1.010191299168897465e-03
1.220244097639055699e-09,-8.514775634759776893e-04,1.285180315739347778e-03
1.240248099239695851e-09,-8.213795246763120651e-04,1.592207085784799617e-03
1.260252100840336004e-09,-7.949973608193222066e-04,1.912350281454330923e-03
1.280256102440976363e-09,-7.728870024299098855e-04,2.225784826040903396e-03
1.300260104041616722e-09,-7.551100540363507238e-04,2.512993746348278143e-03
1.320264105642256874e-09,-7.412521948999975865e-04,2.755962675834458097e-03
1.340268107242897026e-09,-7.304760864477164752e-04,2.939283887065729031e-03
1.360272108843537385e-09,-7.216047230903265865e-04,3.051102397033338479e-03
1.380276110444177744e-09,-7.132291336711535845e-04,3.083846469928634964e-03
1.400280112044817897e-09,-7.038327230690031569e-04,3.034698125441265184e-03
1.420284113645458049e-09,-6.919234415375630177e-04,2.905775220670430044e-03
1.440288115246098408e-09,-6.761644538294977851e-04,2.704014323789027952e-03
1.460292116846738767e-09,-6.554940837894052737e-04,2.440761851697263989e-03
1.480296118447378919e-09,-6.292265257582425886e-04,2.131098683665543989e-03
1.500300120048019072e-09,-5.971260952505620103e-04,1.792939606312267224e-03
1.520304121648659431e-09,-5.594495549548901504e-04,1.445962512557630959e-03
1.540308123249299790e-09,-5.169531840439774411e-04,1.110432450785812930e-03
1.560312124849939942e-09,-4.708636210741745870e-04,8.059917939723127431e-04
1.580316126450580094e-09,-4.228139503214783761e-04,5.504896130104703278e-04
1.600320128051220453e-09,-3.747488598133473623e-04,3.589207030506747376e-04
1.620324129651860812e-09,-3.288048228723676621e-04,2.425378078139610945e-04
1.640328131252500965e-09,-2.871730045241923236e-04,2.081898558231590939e-04
1.660332132853141117e-09,-2.519538538977398072e-04,2.579251369849467094e-04
1.680336134453781476e-09,-2.250130288756276736e-04,3.888821696265184601e-04
1.700340136054421835e-09,-2.078483612035297390e-04,5.934735338447415937e-04
1.720344137655061987e-09,-2.014770000712280532e-04,8.598502472543915510e-04
1.740348139255702140e-09,-2.063507011617877573e-04,1.172617411891043772e-03
1.760352140856342499e-09,-2.223055261398783626e-04,1.513756885707321070e-03
1.780356142456982858e-09,-2.485500885740689206e-04,1.863700527961454322e-03
1.800360144057623010e-09,-2.836940582604936226e-04,2.202488859326470500e-03
1.820364145658263162e-09,-3.258160683995868696e-04,2.510945271358575037e-03
1.840368147258903521e-09,-3.725676208573551365e-04,2.771795475178677297e-03
1.860372148859543880e-09,-4.213072157026023692e-04,2.970665693251419749e-03
1.880376150460183826e-09,-4.692568941704227444e-04,3.096900908581965827e-03
1.900380152060824185e-09,-5.136718113330747751e-04,3.144155788083669543e-03
1.920384153661464544e-09,-5.520124501966164766e-04,3.110724977434221276e-03
1.940388155262104903e-09,-5.821087221013317636e-04,2.999595445279170606e-03
1.960392156862745262e-09,-6.023054993374880525e-04,2.818220447656157122e-03
1.980396158463385208e-09,-6.115800835596749358e-04,2.578031453415349696e-03
2.000400160064025567e-09,-6.096236757110992709e-04,2.293719998322083040e-03
2.020404161664665926e-09,-5.968809896093124016e-04,1.982334977641143914e-03
2.040408163265305871e-09,-5.745446193416993115e-04,1.662251537714200863e-03
2.060412164865946230e-09,-5.445034822008076045e-04,1.352074863343278796e-03
2.080416166466586589e-09,-5.092474498543334699e-04,1.069545377038585987e-03
2.100420168067226948e-09,-4.717329803887524830e-04,8.305110090305327548e-04
2.120424169667867307e-09,-4.352170066391392207e-04,6.480273551374007368e-04
2.140428171268507253e-09,-4.030683701601609566e-04,5.316380482816204225e-04
2.160432172869147612e-09,-3.785675875232779762e-04,4.868760845915888523e-04
2.180436174469787971e-09,-3.647066003986246035e-04,5.150129072848362577e-04
2.200440176070427916e-09,-3.640003350279951040e-04,6.130666391737781429e-04
2.220444177671068276e-09,-3.783213637608666283e-04,7.740649282926982244e-04
2.240448179271708635e-09,-4.087677476691099852e-04,9.875424139113339172e-04
2.260452180872348994e-09,-4.555723126456279822e-04,1.240238776855246208e-03
2.280456182472989353e-09,-5.180592770589160330e-04,1.516951557123108387e-03
2.300460184073629298e-09,-5.946514434331024888e-04,1.801489104022425524e-03
2.320464185674269657e-09,-6.829282492647762099e-04,2.077663680442822305e-03
2.340468187274910016e-09,-7.797320159591289782e-04,2.330263164798718027e-03
2.360472188875549962e-09,-8.813169159943919258e-04,2.545942037239931448e-03
2.380476190476190321e-09,-9.835326652341970077e-04,2.713978219522652797e-03
2.400480192076830680e-09,-1.082032890436353907e-03,2.826851455319757608e-03
2.420484193677471039e-09,-1.172496645158314227e-03,2.880610667981817891e-03
2.440488195278111398e-09,-1.250850739696372262e-03,2.875011356566595493e-03
2.460492196878751344e-09,-1.313480461800818405e-03,2.813418720066974184e-03
2.480496198479391703e-09,-1.357416901163351584e-03,2.702486911835375039e-03
2.500500200080032062e-09,-1.380490415226632000e-03,2.551638702627269904e-03
2.520504201680672007e-09,-1.381441708732053042e-03,2.372382013754416145e-03
2.540508203281312366e-09,-1.359984430160472626e-03,2.177509527619136531e-03
2.560512204881952725e-09,-1.316815970827117524e-03,1.980234306651323679e-03
2.580516206482593084e-09,-1.253576121968082938e-03,1.793317662961983056e-03
2.600520208083233443e-09,-1.172756225843463564e-03,1.628245246510509224e-03
2.620524209683873389e-09,-1.077564272446964984e-03,1.494503512030608992e-03
2.640528211284513748e-09,-9.717538778398044329e-04,1.399001658147515630e-03
2.660532212885154107e-09,-8.594270875901666292e-04,1.345674281950137762e-03
2.680536214485794052e-09,-7.448223623854437203e-04,1.335288005426785553e-03
2.700540216086434412e-09,-6.320998415611971469e-04,1.365461982277446770e-03
2.720544217687074771e-09,-5.251360036918595840e-04,1.430898339731863193e-03
2.740548219287715130e-09,-4.273391541256422576e-04,1.523805130418274959e-03
2.760552220888355489e-09,-3.414958127211648172e-04,1.634482114177063239e-03
2.780556222488995434e-09,-2.696561361738694434e-04,1.752029425850094337e-03
2.800560224089635793e-09,-2.130641078675353842e-04,1.865131548515075715e-03
2.820564225690276152e-09,-1.721355110061428275e-04,1.962864468481265428e-03
2.840568227290916098e-09,-1.464838329510855333e-04,2.035472706641880403e-03
2.860572228891556457e-09,-1.349914034577581376e-04,2.075065154829580649e-03
2.880576230492196816e-09,-1.359204177861538844e-04,2.076184134189520622e-03
2.900580232092837175e-09,-1.470561956926421407e-04,2.036210469424173247e-03
2.920584233693477534e-09,-1.658732151366954888e-04,1.955578092008343136e-03
2.940588235294117480e-09,-1.897132408527175355e-04,1.837784056132975947e-03
2.960592236894757839e-09,-2.159643118191496240e-04,1.689193081505703953e-03
2.980596238495398198e-09,-2.422294865337786527e-04,1.518648985063190135e-03
3.000600240096038143e-09,-2.664750571174459852e-04,1.336917789700135546e-03
3.020604241696678502e-09,-2.871493777028329294e-04,1.155998118299870212e-03
3.040608243297318861e-09,-3.032654167792466307e-04,9.883430160955953767e-04
3.060612244897959220e-09,-3.144425127977518077e-04,8.460430607556004108e-04
3.080616246498599579e-09,-3.209054389382981617e-04,7.400231640617587793e-04
3.100620248099239525e-09,-3.234416031136544997e-04,6.793046889837965965e-04
3.120624249699879884e-09,-3.233198547529295402e-04,6.703804582789022826e-04
3.140628251300520243e-09,-3.221767777978805456e-04,7.167431775810462679e-04
3.160632252901160188e-09,-3.218783721288704129e-04,8.185981873261952710e-04
3.180636254501800547e-09,-3.243665400930769013e-04,9.727799028345377125e-04
3.200640256102440907e-09,-3.315007094735930278e-04,1.172878529732050354e-03
3.220644257703081266e-09,-3.449051848995930377e-04,1.409570456081821795e-03
3.240648259303721625e-09,-3.658324125844530017e-04,1.671132950144309237e-03
3.260652260904361570e-09,-3.950512957834765920e-04,1.944112232411569600e-03
3.280656262505001929e-09,-4.327680772444450941e-04,2.214104363220101724e-03
3.300660264105642288e-09,-4.785852121137108318e-04,2.466601290785183382e-03
3.320664265706282234e-09,-5.315012210307691869e-04,2.687850277135717895e-03
3.340668267306922593e-09,-5.899518900370987265e-04,2.865674012876410787e-03
3.360672268907562952e-09,-6.518905344304666994e-04,2.990201096128526637e-03
3.380676270508203311e-09,-7.149025322558201544e-04,3.054462032617765235e-03
3.400680272108843670e-09,-7.763471155697904309e-04,3.054814165281555249e-03
3.420684273709483615e-09,-8.335176216523079544e-04,2.991169444285006473e-03
3.440688275310123975e-09,-8.838101631521540691e-04,2.867011044971701748e-03
3.460692276910764334e-09,-9.248900536490984453e-04,2.689197778141255366e-03
3.480696278511404279e-09,-9.548453631949838094e-04,2.467568210643919253e-03
3.500700280112044638e-09,-9.723176765522598478e-04,2.214368621700762464e-03
3.520704281712684997e-09,-9.766014442183145947e-04,1.943539609191632890e-03
3.540708283313325356e-09,-9.677051741941517437e-04,1.669904675094932046e-03
3.560712284913965715e-09,-9.463699990589038210e-04,1.408309942422811614e-03
3.580716286514605661e-09,-9.140437302162232255e-04,1.172766938504795362e-03
3.600720288115246020e-09,-8.728112232637006340e-04,9.756499624255903771e-04
3.620724289715886379e-09,-8.252845609308395594e-04,8.269959778967054176e-04
3.640728291316526324e-09,-7.744590500529676498e-04,7.339484724986449198e-04
3.660732292917166683e-09,-7.235431750381730778e-04,7.003777157653437706e-04
3.680736294517807043e-09,-6.757723211411417220e-04,7.266989010339282556e-04
3.700740296118447402e-09,-6.342171738303438531e-04,8.098974556383718281e-04
3.720744297719087761e-09,-6.015981473942714390e-04,9.437581111951319317e-04
3.740748299319727706e-09,-5.801169670605533677e-04,1.119281927130881798e-03
3.760752300920367652e-09,-5.713156350589340161e-04,1.325264120334096246e-03
3.780756302521008424e-09,-5.759715027255558374e-04,1.548995965976473349e-03
3.800760304121648370e-09,-5.940351350920300378e-04,1.777046780482155908e-03
3.820764305722289142e-09,-6.246152100697968668e-04,1.996077510350071846e-03
3.840768307322929088e-09,-6.660119843579374909e-04,2.193635988666968375e-03
3.860772308923569033e-09,-7.157980414679166858e-04,2.358885553764230453e-03
3.880776310524209806e-09,-7.709422790952798112e-04,2.483223327893598672e-03
3.900780312124849751e-09,-8.279705554269079469e-04,2.560751720410038915e-03
3.920784313725490524e-09,-8.831542458653700908e-04,2.588576178431131400e-03
3.940788315326130470e-09,-9.327162903813301931e-04,2.566913253598596210e-03
3.960792316926770415e-09,-9.730432354099601217e-04,2.499004986841524278e-03
3.980796318527411188e-09,-1.000891356161442416e-03,2.390847683715565265e-03
4.000800320128051133e-09,-1.013575210205299847e-03,2.250754607238984999e-03
4.020804321728691079e-09,-1.009127906177766142e-03,2.088782243029171839e-03
4.040808323329331851e-09,-9.864239186065468928e-04,1.916057970544189810e-03
4.060812324929971797e-09,-9.452573517877096597e-04,1.744052708069964916e-03
4.080816326530611742e-09,-8.863710328699402237e-04,1.583845047920230242e-03
4.100820328131252515e-09,-8.114345542300126701e-04,1.445423399095535633e-03
4.120824329731892460e-09,-7.229722306406381012e-04,1.337069730329294628e-03
4.140828331332533233e-09,-6.242447249827054153e-04,1.264862863451520630e-03
4.160832332933173179e-09,-5.190906687147076775e-04,1.232331281217622244e-03
4.180836334533813124e-09,-4.117368145577942652e-04,1.240275605977360623e-03
4.200840336134453897e-09,-3.065869849843492600e-04,1.286769907985948038e-03
4.220844337735093842e-09,-2.080012257428919117e-04,1.367339518001635043e-03
4.240848339335734615e-09,-1.200770772641120691e-04,1.475301777703200493e-03
4.260852340936374560e-09,-4.644471392037434693e-05,1.602245873380271505e-03
4.280856342537014506e-09,9.913114510570484651e-06,1.738619209012054684e-03
4.300860344137655278e-09,4.680682240960872865e-05,1.874381225327448591e-03
4.320864345738295224e-09,6.294382711611188545e-05,1.999681564550418681e-03
4.340868347338935169e-09,5.798524438626279445e-05,2.105518256066761778e-03
4.360872348939575942e-09,3.255280643514891348e-05,2.184333218561478485e-03
4.380876350540215887e-09,-1.181390249624770741e-05,2.230506721023081673e-03
4.400880352140855833e-09,-7.274710250266140155e-05,2.240719227753325271e-03
4.420884353741496606e-09,-1.471820637733957317e-04,2.214157827175726803e-03
4.440888355342136551e-09,-2.315224488172737481e-04,2.152554642123829468e-03
4.460892356942777324e-09,-3.218305074157454889e-04,2.060055583438027364e-03
4.480896358543417269e-09,-4.140316609543185462e-04,1.942928835705848940e-03
4.500900360144057215e-09,-5.041223847252596481e-04,1.809132848675672244e-03
4.520904361744697987e-09,-5.883702864462456899e-04,1.667772687954615675e-03
4.540908363345337933e-09,-6.634958776011617206e-04,1.528480796463733971e-03
4.560912364945978705e-09,-7.268266982149079519e-04,1.400763077217970914e-03
4.580916366546618651e-09,-7.764161112190093045e-04,1.293353421481514528e-03
4.600920368147258596e-09,-8.111211292628305166e-04,1.213619236226200476e-03
4.620924369747899369e-09,-8.306359541860320857e-04,1.167057210381419958e-03
4.640928371348539315e-09,-8.354803640170413263e-04,1.156912714441662689e-03
4.660932372949179260e-09,-8.269445358554227809e-04,1.183948227203401697e-03
4.680936374549820033e-09,-8.069942097702918543e-04,1.246376538245578961e-03
4.700940376150459978e-09,-7.781421538422024367e-04,1.339963801175590935e-03
4.720944377751099924e-09,-7.432935759899836955e-04,1.458296491948520967e-03
4.740948379351740696e-09,-7.055743596224256335e-04,1.593195662314511119e-03
4.760952380952380642e-09,-6.681517201304369106e-04,1.735252252023655913e-03
4.780956382553021414e-09,-6.340570603981939782e-04,1.874449250906331556e-03
4.800960384153661360e-09,-6.060204492071744704e-04,2.000830695225610471e-03
4.820964385754301305e-09,-5.863252897466285536e-04,2.105174217064819699e-03
4.840968387354942078e-09,-5.766904466599231689e-04,2.179623355929270756e-03
4.860972388955582023e-09,-5.781854423682123139e-04,2.218238129136533045e-03
4.880976390556222796e-09,-5.911824176897012865e-04,2.217427306105737659e-03
4.900980392156862742e-09,-6.153464903317439711e-04,2.176233137074734883e-03
4.920984393757502687e-09,-6.496640547592513791e-04,2.096448495330383369e-03
4.940988395358143460e-09,-6.925065633330295973e-04,1.982556928827042524e-03
4.960992396958783405e-09,-7.417255181363899578e-04,1.841497321961203457e-03
4.980996398559423351e-09,-7.947728780587808625e-04,1.682266037211024379e-03
5.001000400160064123e-09,-8.488399200388918554e-04,1.515379835456469705e-03
5.021004401760704069e-09,-9.010068380004292339e-04,1.352231903460340790e-03
5.041008403361344014e-09,-9.483950445109826707e-04,1.204380373280395647e-03
5.061012404961984787e-09,-9.883142599677993603e-04,1.082813349110561384e-03
5.081016406562624732e-09,-1.018397009267544076e-03,9.972363602810346925e-04
5.101020408163265505e-09,-1.036714051472455633e-03,9.554272023822652556e-04
5.121024409763905450e-09,-1.041865480294120773e-03,9.626993572535110823e-04
5.141028411364545396e-09,-1.033043674315821479e-03,1.021508818031028731e-03
5.161032412965186169e-09,-1.010065858496933576e-03,1.131230570909501094e-03
5.181036414565826114e-09,-9.733756714128824960e-04,1.288120722759308152e-03
5.201040416166466887e-09,-9.240147260221804378e-04,1.485468941839324618e-03
5.221044417767106832e-09,-8.635666220616080267e-04,1.713934193866943189e-03
