# Time (s),DUT (V),TEM (V)
0.000000000000000000e+00,-2.545861675243763205e-04,6.293006055416009749e-04
2.000400160064025567e-11,-6.719116648552569742e-05,1.211757289473388557e-03
4.000800320128051133e-11,9.173063777783057920e-05,1.649084916223527049e-03
6.001200480192076700e-11,2.186688950517680678e-04,1.923386531676621585e-03
8.001600640256102266e-11,3.117357582316151858e-04,2.026317695291539323e-03
1.000200080032012783e-10,3.706881293002914335e-04,1.959364328679255585e-03
1.200240096038415340e-10,3.968634960567948822e-04,1.733528362101701293e-03
1.400280112044817897e-10,3.930350221064648998e-04,1.368450324831096271e-03
1.600320128051220453e-10,3.631958897195012746e-04,8.910319474013286400e-04
1.800360144057623010e-10,3.122865846780512522e-04,3.336514149715056384e-04
2.000400160064025567e-10,2.458816556745344549e-04,-2.679126321173026532e-04
2.200440176070428123e-10,1.698543318683786341e-04,-8.767162766183219302e-04
2.400480192076830680e-10,9.003815436372847227e-05,-1.456904994713242949e-03
2.600520208083233237e-10,1.190444802717268519e-05,-1.975849242242921477e-03
2.800560224089635793e-10,-5.972692927021985962e-05,-2.406032029151581545e-03
3.000600240096038350e-10,-1.209284701361899796e-04,-2.726577029151470728e-03
3.200640256102440907e-10,-1.688455935092683842e-04,-2.924329884936273383e-03
3.400680272108843463e-10,-2.018087251596048255e-04,-2.994434536844243350e-03
3.600720288115246020e-10,-2.193728207682384352e-04,-2.940378746395755534e-03
3.800760304121648577e-10,-2.222845211079739394e-04,-2.773516453379474330e-03
4.000800320128051133e-10,-2.123812572130633872e-04,-2.512107099478581157e-03
4.200840336134453690e-10,-1.924303919731268342e-04,-2.179941562568688158e-03
4.400880352140856247e-10,-1.659196830034300396e-04,-1.804649074002200601e-03
4.600920368147258803e-10,-1.368128077603297788e-04,-1.415797956733849368e-03
4.800960384153661360e-10,-1.092852810568218670e-04,-1.042914153959420770e-03
5.001000400160063916e-10,-8.745674668591899828e-05,-7.135447156965564735e-04
5.201040416166466473e-10,-7.513532505994040896e-05,-4.514885769626496379e-04
5.401080432172869030e-10,-7.558849048635194151e-05,-2.753045017461357201e-04
5.601120448179271586e-10,-9.135293060081273403e-05,-1.971868600284533662e-04
5.801160464185674143e-10,-1.240931481929200182e-04,-2.222752411537547569e-04
6.001200480192076700e-10,-1.745153802918016626e-04,-3.484354033538869869e-04
6.201240496198479256e-10,-2.423399340256763537e-04,-5.665185559836798980e-04
6.401280512204881813e-10,-3.263314887755944509e-04,-8.610754124610329845e-04
6.601320528211284370e-10,-4.243835038673156204e-04,-1.211472764269336082e-03
6.801360544217686926e-10,-5.336498009581205470e-04,-1.593335297126465986e-03
7.001400560224089483e-10,-6.507138351649327914e-04,-1.980215537608553608e-03
7.201440576230492040e-10,-7.717842679529820366e-04,-2.345381376852817730e-03
7.401480592236894596e-10,-8.929043036632424747e-04,-2.663604347332912837e-03
7.601520608243297153e-10,-1.010161897972483786e-03,-2.912833049341334059e-03
7.801560624249699710e-10,-1.119888388298722476e-03,-3.075644680757791058e-03
8.001600640256102266e-10,-1.218834282308255135e-03,-3.140382901137167213e-03
8.201640656262504823e-10,-1.304312775995829406e-03,-3.101911225644101225e-03
8.401680672268907380e-10,-1.374303924560038017e-03,-2.961936413697153006e-03
8.601720688275309936e-10,-1.427515096316346686e-03,-2.728884250641632446e-03
8.801760704281712493e-10,-1.463396223210290366e-03,-2.417338924707411116e-03
9.001800720288115050e-10,-1.482111235848083183e-03,-2.047085043626632392e-03
9.201840736294517606e-10,-1.484469756457263779e-03,-1.641816460295850199e-03
9.401880752300919129e-10,-1.471825456402977867e-03,-1.227596916305990788e-03
9.601920768307322720e-10,-1.445949328717451455e-03,-8.311727815240760623e-04
9.801960784313726310e-10,-1.408887377794469480e-03,-4.782469450997257898e-04
1.000200080032012783e-09,-1.362812825257444767e-03,-1.918246936281799023e-04
1.020204081632652936e-09,-1.309882853479671328e-03,9.262863163131502886e-06
1.040208083233293295e-09,-1.252109180246526419e-03,1.115642029664432175e-04
1.060212084833933654e-09,-1.191250444588153436e-03,1.078658294666672381e-04
1.080216086434573806e-09,-1.128732585958951411e-03,-2.349566184670107315e-06
1.100220088035213958e-09,-1.065601246714916297e-03,-2.128727842770665663e-04
1.120224089635854317e-09,-1.002507871328130662e-03,-5.111658685086124159e-04
1.140228091236494676e-09,-9.397287751436971936e-04,-8.791609826049745242e-04
1.160232092837134829e-09,-8.772141705007378441e-04,-1.294408148142125667e-03
1.180236094437774981e-09,-8.146621178102973933e-04,-1.731497718048690846e-03
1.200240096038415340e-09,-7.516107427079532933e-04,-2.163666409542118821e-03
1.220244097639055699e-09,-6.875409285588797914e-04,-2.564484526943698432e-03
1.240248099239695851e-09,-6.219811230553568861e-04,-2.909517339065667389e-03
1.260252100840336004e-09,-5.546059170454071749e-04,-3.177855692400557725e-03
1.280256102440976363e-09,-4.853206523406008305e-04,-3.353419666357513283e-03
1.300260104041616722e-09,-4.143254442054878782e-04,-3.425953821800483811e-03
1.320264105642256874e-09,-3.421535801844524985e-04,-3.391652395800344531e-03
1.340268107242897026e-09,-2.696811678866856414e-04,-3.253376378654413044e-03
1.360272108843537385e-09,-1.981070173205435919e-04,-3.020450269047128371e-03
1.380276110444177744e-09,-1.289039132218846239e-04,-2.708052801286029137e-03
1.400280112044817897e-09,-6.374451191724746159e-05,-2.336241406492279692e-03
1.420284113645458049e-09,-4.406945122028641670e-06,-1.928673014062647637e-03
1.440288115246098408e-09,4.733329448797881820e-05,-1.511102601666216693e-03
1.460292116846738767e-09,8.981757395169777099e-05,-1.109754504755767254e-03
1.480296118447378919e-09,1.216163222997754733e-04,-7.496690763523084899e-04
1.500300120048019072e-09,1.416311357235637623e-04,-4.531284034613174312e-04
1.520304121648659431e-09,1.491793084544141808e-04,-2.382594042650795795e-04
1.540308123249299790e-09,1.440544294951512361e-04,-1.179011236033429690e-04
1.560312124849939942e-09,1.265582445871803467e-04,-9.880616758630567488e-05
1.580316126450580094e-09,9.750088090091166152e-05,-1.812250571158737715e-04
1.600320128051220453e-09,5.816864343848936832e-05,-3.588981813995597799e-04
1.620324129651860812e-09,1.026077735289935257e-05,-6.194545181639973547e-04
1.640328131252500965e-09,-4.420129549347709836e-05,-9.451909579736759125e-04
1.660332132853141117e-09,-1.029868549183822821e-04,-1.314182504817607098e-03
1.680336134453781476e-09,-1.637839012244430008e-04,-1.701653282614311313e-03
1.700340136054421835e-09,-2.243342204326211552e-04,-2.081522405543203766e-03
1.720344137655061987e-09,-2.825668037688155478e-04,-2.428028330036006814e-03
1.740348139255702140e-09,-3.367208957729006676e-04,-2.717330913594032029e-03
1.760352140856342499e-09,-3.854504837306831858e-04,-2.928992294890327489e-03
1.780356142456982858e-09,-4.279031213232799670e-04,-3.047245722292106409e-03
1.800360144057623010e-09,-4.637675363437597899e-04,-3.061975055003310700e-03
1.820364145658263162e-09,-4.932864098134941274e-04,-2.969345959448511495e-03
1.840368147258903521e-09,-5.172329105073783257e-04,-2.772051653845095890e-03
1.860372148859543880e-09,-5.368518859776978637e-04,-2.479160035345423421e-03
1.880376150460183826e-09,-5.537689011719548228e-04,-2.105573652248537639e-03
1.900380152060824185e-09,-5.698724318442241390e-04,-1.671137725302905466e-03
1.920384153661464544e-09,-5.871763253160013681e-04,-1.199452810763708931e-03
1.940388155262104903e-09,-6.076710176086120001e-04,-7.164664252659706800e-04
1.960392156862745262e-09,-6.331728516796622215e-04,-2.489309486349849270e-04
1.980396158463385208e-09,-6.651811168052656955e-04,1.771773815166199873e-04
2.000400160064025567e-09,-7.047521005706295196e-04,5.381819886780406844e-04
2.020404161664665926e-09,-7.523985268166403758e-04,8.140799778624401061e-04
2.040408163265305871e-09,-8.080212967476254086e-04,9.896846673059706868e-04
2.060412164865946230e-09,-8.708785418871444828e-04,1.055469628944576610e-03
2.080416166466586589e-09,-9.395947513101899273e-04,1.008066212965577635e-03
2.100420168067226948e-09,-1.012210288213343965e-03,8.503882839356403977e-04
2.120424169667867307e-09,-1.086269112649446578e-03,5.913810453858287571e-04
2.140428171268507253e-09,-1.158940132729264876e-03,2.454139248969729637e-04
2.160432172869147612e-09,-1.227165465120738262e-03,-1.686409015274437193e-04
2.180436174469787971e-09,-1.287827132066887877e-03,-6.285839762271389986e-04
2.200440176070427916e-09,-1.337922468244989510e-03,-1.110242812237884590e-03
2.220444177671068276e-09,-1.374737838442260506e-03,-1.588919725191401990e-03
2.240448179271708635e-09,-1.396010222837527773e-03,-2.040843443536496677e-03
2.260452180872348994e-09,-1.400066818963850452e-03,-2.444535732181113332e-03
2.280456182472989353e-09,-1.385934007470498303e-03,-2.782010804188656330e-03
2.300460184073629298e-09,-1.353408764541318013e-03,-3.039736866537534783e-03
2.320464185674269657e-09,-1.303087775825539094e-03,-3.209304967605191780e-03
2.340468187274910016e-09,-1.236351986229204322e-03,-3.287769346264752396e-03
2.360472188875549962e-09,-1.155306958540510895e-03,-3.277644495246860579e-03
2.380476190476190321e-09,-1.062682052635799488e-03,-3.186565803506921733e-03
2.400480192076830680e-09,-9.616939159775258258e-04,-3.026641566787590873e-03
2.420484193677471039e-09,-8.558819440888820089e-04,-2.813543045941956349e-03
2.440488195278111398e-09,-7.489250935113099181e-04,-2.565394944652892723e-03
2.460492196878751344e-09,-6.444506024638801869e-04,-2.301540221894424199e-03
2.480496198479391703e-09,-5.458457218886729597e-04,-2.041259871772528860e-03
2.500500200080032062e-09,-4.560834451044902971e-04,-1.802529828323830730e-03
2.520504201680672007e-09,-3.775724510632170062e-04,-1.600893451705438829e-03
2.540508203281312366e-09,-3.120400871800618628e-04,-1.448519422336168750e-03
2.560512204881952725e-09,-2.604552932287025353e-04,-1.353501917385979258e-03
2.580516206482593084e-09,-2.229960208454002664e-04,-1.319443543698432418e-03
2.600520208083233443e-09,-1.990630727108123616e-04,-1.345342736665892372e-03
2.620524209683873389e-09,-1.873395280692744414e-04,-1.425787428675374035e-03
2.640528211284513748e-09,-1.858922017722874377e-04,-1.551437026514719151e-03
2.660532212885154107e-09,-1.923090657354302739e-04,-1.709756375609565145e-03
2.680536214485794052e-09,-2.038643963535056514e-04,-1.885949589237780576e-03
2.700540216086434412e-09,-2.177017301780120428e-04,-2.064029367236180912e-03
2.720544217687074771e-09,-2.310236156031247239e-04,-2.227949469549004614e-03
2.740548219287715130e-09,-2.412767081951510805e-04,-2.362724812077372435e-03
2.760552220888355489e-09,-2.463210004207044075e-04,-2.455465373544405035e-03
2.780556222488995434e-09,-2.445728908542184397e-04,-2.496256583928281678e-03
2.800560224089635793e-09,-2.351133312528615497e-04,-2.478829645141047890e-03
2.820564225690276152e-09,-2.177543527819817304e-04,-2.400979578979093969e-03
2.840568227290916098e-09,-1.930597438499503135e-04,-2.264705749145090249e-03
2.860572228891556457e-09,-1.623183854257152152e-04,-2.076068046701065681e-03
2.880576230492196816e-09,-1.274715832584580376e-04,-1.844770657815187655e-03
2.900580232092837175e-09,-9.099850156648471415e-05,-1.583503135767229701e-03
2.920584233693477534e-09,-5.576633459936477036e-05,-1.307084230827468274e-03
2.940588235294117480e-09,-2.485399954520413400e-05,-1.031466587978502238e-03
2.960592236894757839e-09,-1.359767596753305225e-06,-7.726692043184520478e-04
2.980596238495398198e-09,1.179572913464778158e-05,-5.457089007996345376e-04
3.000600240096038143e-09,1.205933135931335458e-05,-3.636017501793768606e-04
3.020604241696678502e-09,-2.583404555923747680e-06,-2.365004609776351081e-04
3.040608243297318861e-09,-3.346595517812928528e-05,-1.710244903232814692e-04
3.060612244897959220e-09,-8.113631932853972942e-05,-1.698267658065012308e-04
3.080616246498599579e-09,-1.452968218125829910e-04,-2.314251902079459658e-04
3.100620248099239525e-09,-2.247922321853386353e-04,-3.503096131775432828e-04
3.120624249699879884e-09,-3.176473794076608366e-04,-5.173168211608496908e-04
3.140628251300520243e-09,-4.211525423202807468e-04,-7.202484986483501973e-04
3.160632252901160188e-09,-5.319920844127779946e-04,-9.446911889240385213e-04
3.180636254501800547e-09,-6.464092450328901614e-04,-1.174984057992076430e-03
3.200640256102440907e-09,-7.603978488416409699e-04,-1.395270591176474197e-03
3.220644257703081266e-09,-8.699100781742116761e-04,-1.590564846845466188e-03
3.240648259303721625e-09,-9.710684650457341877e-04,-1.747761904619395687e-03
3.260652260904361570e-09,-1.060369960042172304e-03,-1.856525733516401627e-03
3.280656262505001929e-09,-1.134870343134113850e-03,-1.909995631592891754e-03
3.300660264105642288e-09,-1.192338333986256872e-03,-1.905264137101184401e-03
3.320664265706282234e-09,-1.231370473940239779e-03,-1.843594121601180346e-03
3.340668267306922593e-09,-1.251460089430021143e-03,-1.730359691854895746e-03
3.360672268907562952e-09,-1.253016277446488119e-03,-1.574713459730757957e-03
3.380676270508203311e-09,-1.237331725100842151e-03,-1.389000533721356651e-03
3.400680272108843670e-09,-1.206501120589992000e-03,-1.187956097803425943e-03
3.420684273709483615e-09,-1.163294760890441846e-03,-9.877376118719591661e-04
3.440688275310123975e-09,-1.110994546943817191e-03,-8.048535819685359843e-04
3.460692276910764334e-09,-1.053201729927280648e-03,-6.550578054892728427e-04
3.480696278511404279e-09,-9.936274064682791389e-04,-5.522805469001575845e-04
3.500700280112044638e-09,-9.358777617710811085e-04,-5.076660748829617438e-04
3.520704281712684997e-09,-8.832463697965671403e-04,-5.287795156663996094e-04
3.540708283313325356e-09,-8.385254612109043328e-04,-6.190354565454237378e-04
3.560712284913965715e-09,-8.038469861849141009e-04,-7.773868327294511773e-04
3.580716286514605661e-09,-7.805625932849252551e-04,-9.982962292561490831e-04
3.600720288115246020e-09,-7.691694165092258662e-04,-1.271993866447455358e-03
3.620724289715886379e-09,-7.692859388916041975e-04,-1.585008344098451502e-03
3.640728291316526324e-09,-7.796793344040119957e-04,-1.920938849466641849e-03
3.660732292917166683e-09,-7.983427451949817386e-04,-2.261422088682659218e-03
3.680736294517807043e-09,-8.226180976240731087e-04,-2.587234660605563195e-03
3.700740296118447402e-09,-8.493574615089534690e-04,-2.879462753320841638e-03
3.720744297719087761e-09,-8.751137607787574371e-04,-3.120666469864914142e-03
3.740748299319727706e-09,-8.963499749913420630e-04,-3.295966075869560200e-03
3.760752300920367652e-09,-9.096549238767887404e-04,-3.393982014828943444e-03
3.780756302521008424e-09,-9.119533591766511640e-04,-3.407569376167839982e-03
3.800760304121648370e-09,-9.006984183549926991e-04,-3.334300077048305347e-03
3.820764305722289142e-09,-8.740355020017357562e-04,-3.176661545789290393e-03
3.840768307322929088e-09,-8.309282610353245242e-04,-2.941958202426592575e-03
3.860772308923569033e-09,-7.712395262550880704e-04,-2.641920425654808134e-03
3.880776310524209806e-09,-6.957625571601415339e-04,-2.292043825194978006e-03
3.900780312124849751e-09,-6.062007829560748552e-04,-1.910698371483102479e-03
3.920784313725490524e-09,-5.050970964975862133e-04,-1.518061225439871435e-03
3.940788315326130470e-09,-3.957165774603634933e-04,-1.134938068357849812e-03
3.960792316926770415e-09,-2.818891053321622743e-04,-7.815446731387248923e-04
3.980796318527411188e-09,-1.678205310930331337e-04,-4.763229523242488083e-04
4.000800320128051133e-09,-5.788278632770956210e-05,-2.348636128736142218e-04
4.020804321728691079e-09,4.360557320365895608e-05,-6.900097704522830267e-05
4.040808323329331851e-09,1.325964246942663968e-04,1.386509394547309499e-05
4.060812324929971797e-09,2.055149754124524259e-04,1.117924649304259351e-05
4.080816326530611742e-09,2.594375983745026196e-04,-7.465175410171995274e-05
4.100820328131252515e-09,2.922351656788672826e-04,-2.364402498707781546e-04
4.120824329731892460e-09,3.026744129962581327e-04,-4.626857916472922137e-04
4.140828331332533233e-09,2.904722411501413121e-04,-7.383005680645704288e-04
4.160832332933173179e-09,2.563004939925679843e-04,-1.045546897579477386e-03
4.180836334533813124e-09,2.017414952366123173e-04,-1.365128641237548911e-03
4.200840336134453897e-09,1.291973252036007595e-04,-1.677369146396100706e-03
4.220844337735093842e-09,4.175832043249349585e-05,-1.963403277574547832e-03
4.240848339335734615e-09,-5.696155360817737261e-05,-2.206310530645298924e-03
4.260852340936374560e-09,-1.630130917577696963e-04,-2.392120180837925981e-03
4.280856342537014506e-09,-2.723134641898248090e-04,-2.510627622727035387e-03
4.300860344137655278e-09,-3.808499524169101482e-04,-2.555972996985291304e-03
4.320864345738295224e-09,-4.848747596187586752e-04,-2.526948109508648458e-03
4.340868347338935169e-09,-5.810805220576511099e-04,-2.427014596526128314e-03
4.360872348939575942e-09,-6.667473908078023299e-04,-2.264034214176017471e-03
4.380876350540215887e-09,-7.398542867034495771e-04,-2.049729915726281396e-03
4.400880352140855833e-09,-7.991490517068957928e-04,-1.798912920227942192e-03
4.420884353741496606e-09,-8.441746017580777734e-04,-1.528525250920453014e-03
4.440888355342136551e-09,-8.752506914721882615e-04,-1.256558353479593319e-03
4.460892356942777324e-09,-8.934133866616793653e-04,-1.000915715952391347e-03
4.480896358543417269e-09,-9.003166666316796173e-04,-7.782904675428576778e-04
4.500900360144057215e-09,-8.981026157118335296e-04,-6.031275629548473035e-04
4.520904361744697987e-09,-8.892483020139042632e-04,-4.867344699292280776e-04
4.540908363345337933e-09,-8.763985947313324533e-04,-4.365946457355414823e-04
4.560912364945978705e-09,-8.621947820728708117e-04,-4.559251335157623935e-04
4.580916366546618651e-09,-8.491088944835761864e-04,-5.435041556008501223e-04
4.600920368147258596e-09,-8.392931191469545256e-04,-6.937776041966243947e-04
4.620924369747899369e-09,-8.344526506231591482e-04,-8.972358963969155957e-04
4.640928371348539315e-09,-8.357488266356599693e-04,-1.141035859826145492e-03
4.660932372949179260e-09,-8.437375399533407223e-04,-1.409827191939451744e-03
4.680936374549820033e-09,-8.583458085395952435e-04,-1.686730524766102968e-03
4.700940376150459978e-09,-8.788871505321248136e-04,-1.954404994474606260e-03
4.720944377751099924e-09,-9.041141771542533139e-04,-2.196138013403555866e-03
4.740948379351740696e-09,-9.323047119851994319e-04,-2.396888974529044064e-03
4.760952380952380642e-09,-9.613758862707784359e-04,-2.544221921900868301e-03
4.780956382553021414e-09,-9.890191482645304798e-04,-2.629069565293701977e-03
4.800960384153661360e-09,-1.012848039592737512e-03,-2.646281921546974041e-03
4.820964385754301305e-09,-1.030549987339841791e-03,-2.594926626981339246e-03
4.840968387354942078e-09,-1.040033262713815432e-03,-2.478323707879971811e-03
4.860972388955582023e-09,-1.039560662343173934e-03,-2.303814322901325852e-03
4.880976390556222796e-09,-1.027862344596119047e-03,-2.082279649625572767e-03
4.900980392156862742e-09,-1.004221542814413230e-03,-1.827441634221040881e-03
4.920984393757502687e-09,-9.685284997335215666e-04,-1.554990790558653932e-03
4.940988395358143460e-09,-9.212998250233352289e-04,-1.281596790515058225e-03
4.960992396958783405e-09,-8.636624618184924771e-04,-1.023864585125986056e-03
4.980996398559423351e-09,-7.973034443035594042e-04,-7.973018175961397048e-04
5.001000400160064123e-09,-7.243885244422203001e-04,-6.153621664994566318e-04
5.021004401760704069e-09,-6.474544372831639956e-04,-4.886240842859041053e-04
5.041008403361344014e-09,-5.692809701178815594e-04,-4.241555196764242963e-04
5.061012404961984787e-09,-4.927500288324596642e-04,-4.251032106310892022e-04
5.081016406562624732e-09,-4.206995050507087385e-04,-4.905307785768934755e-04
5.101020408163265505e-09,-3.557799146550973991e-04,-6.155140596770943776e-04
5.121024409763905450e-09,-3.003215020091501647e-04,-7.914858760543122930e-04
5.141028411364545396e-09,-2.562188095865703145e-04,-1.006806802432284962e-03
5.161032412965186169e-09,-2.248386475247861685e-04,-1.247524403039188684e-03
5.181036414565826114e-09,-2.069560292905945015e-04,-1.498271777747023489e-03
