# Time (s),DUT (V),TEM (V)
0.000000000000000000e+00,-1.940346512440009608e-03,-1.940346512440009608e-03
2.000400160064025567e-11,-2.001975239901543097e-03,-2.001975239901543097e-03
4.000800320128051133e-11,-2.040712190397122195e-03,-2.040712190397122195e-03
6.001200480192076700e-11,-2.059589134791696158e-03,-2.059589134791696158e-03
8.001600640256102266e-11,-2.062289041582203962e-03,-2.062289041582203962e-03
1.000200080032012783e-10,-2.052797285199535297e-03,-2.052797285199535297e-03
1.200240096038415340e-10,-2.035049965346953996e-03,-2.035049965346953996e-03
1.400280112044817897e-10,-2.012604733750721509e-03,-2.012604733750721509e-03
1.600320128051220453e-10,-1.988357563739893367e-03,-1.988357563739893367e-03
1.800360144057623010e-10,-1.964325339847302482e-03,-1.964325339847302482e-03
2.000400160064025567e-10,-1.941509235942468371e-03,-1.941509235942468371e-03
2.200440176070428123e-10,-1.919847928628734806e-03,-1.919847928628734806e-03
2.400480192076830680e-10,-1.898263163266783850e-03,-1.898263163266783850e-03
2.600520208083233237e-10,-1.874793499737764657e-03,-1.874793499737764657e-03
2.800560224089635793e-10,-1.846805672101535858e-03,-1.846805672101535858e-03
3.000600240096038350e-10,-1.811267339681771511e-03,-1.811267339681771511e-03
3.200640256102440907e-10,-1.765060477302849958e-03,-1.765060477302849958e-03
3.400680272108843463e-10,-1.705311565017895688e-03,-1.705311565017895688e-03
3.600720288115246020e-10,-1.629713311986676592e-03,-1.629713311986676592e-03
3.800760304121648577e-10,-1.536812992968903746e-03,-1.536812992968903746e-03
4.000800320128051133e-10,-1.426244577648443524e-03,-1.426244577648443524e-03
4.200840336134453690e-10,-1.298885561884396923e-03,-1.298885561884396923e-03
4.400880352140856247e-10,-1.156924523882722072e-03,-1.156924523882722072e-03
4.600920368147258803e-10,-1.003831589203970070e-03,-1.003831589203970070e-03
4.800960384153661360e-10,-8.442307845166264254e-04,-8.442307845166264254e-04
5.001000400160063916e-10,-6.836802321227975323e-04,-6.836802321227975323e-04
5.201040416166466473e-10,-5.283728099048176250e-04,-5.283728099048176250e-04
5.401080432172869030e-10,-3.847758138480649641e-04,-3.847758138480649641e-04
5.601120448179271586e-10,-2.592328980326276725e-04,-2.592328980326276725e-04
5.801160464185674143e-10,-1.575547894520771316e-04,-1.575547894520771316e-04
6.001200480192076700e-10,-8.462673940953170291e-05,-8.462673940953170291e-05
6.201240496198479256e-10,-4.406025179334605588e-05,-4.406025179334605588e-05
6.401280512204881813e-10,-3.791431835039487698e-05,-3.791431835039487698e-05
6.601320528211284370e-10,-6.650731590744831799e-05,-6.650731590744831799e-05
6.801360544217686926e-10,-1.283351240653127754e-04,-1.283351240653127754e-04
7.001400560224089483e-10,-2.201042533156639556e-04,-2.201042533156639556e-04
7.201440576230492040e-10,-3.368812655310928568e-04,-3.368812655310928568e-04
7.401480592236894596e-10,-4.723520101888089911e-04,-4.723520101888089911e-04
7.601520608243297153e-10,-6.191767038794960664e-04,-6.191767038794960664e-04
7.801560624249699710e-10,-7.694201519929161261e-04,-7.694201519929161261e-04
8.001600640256102266e-10,-9.150309118969668452e-04,-9.150309118969668452e-04
8.201640656262504823e-10,-1.048339314892421294e-03,-1.048339314892421294e-03
8.401680672268907380e-10,-1.162542288053417623e-03,-1.162542288053417623e-03
8.601720688275309936e-10,-1.252143014457412313e-03,-1.252143014457412313e-03
8.801760704281712493e-10,-1.313315675521773730e-03,-1.313315675521773730e-03
9.001800720288115050e-10,-1.344169728655037008e-03,-1.344169728655037008e-03
9.201840736294517606e-10,-1.344894150466061609e-03,-1.344894150466061609e-03
9.401880752300919129e-10,-1.317769463788695918e-03,-1.317769463788695918e-03
9.601920768307322720e-10,-1.267043710683962883e-03,-1.267043710683962883e-03
9.801960784313726310e-10,-1.198677307818001763e-03,-1.198677307818001763e-03
1.000200080032012783e-09,-1.119970362183014562e-03,-1.119970362183014562e-03
1.020204081632652936e-09,-1.039093969502205344e-03,-1.039093969502205344e-03
1.040208083233293295e-09,-9.645537353882381983e-04,-9.645537353882381983e-04
1.060212084833933654e-09,-9.046187908336119667e-04,-9.046187908336119667e-04
1.080216086434573806e-09,-8.667525601008325064e-04,-8.667525601008325064e-04
1.100220088035213958e-09,-8.570822473018088099e-04,-8.570822473018088099e-04
1.120224089635854317e-09,-8.799423473606214803e-04,-8.799423473606214803e-04
1.140228091236494676e-09,-9.375235179426155566e-04,-9.375235179426155566e-04
1.160232092837134829e-09,-1.029652081107615023e-03,-1.029652081107615023e-03
1.180236094437774981e-09,-1.153717605204757253e-03,-1.153717605204757253e-03
1.200240096038415340e-09,-1.304756915627810782e-03,-1.304756915627810782e-03
1.220244097639055699e-09,-1.475693054825238243e-03,-1.475693054825238243e-03
1.240248099239695851e-09,-1.657717771132654217e-03,-1.657717771132654217e-03
1.260252100840336004e-09,-1.840796694501560873e-03,-1.840796694501560873e-03
1.280256102440976363e-09,-2.014268065142159076e-03,-2.014268065142159076e-03
1.300260104041616722e-09,-2.167499267588187100e-03,-2.167499267588187100e-03
1.320264105642256874e-09,-2.290560939922695743e-03,-2.290560939922695743e-03
1.340268107242897026e-09,-2.374876400851431632e-03,-2.374876400851431632e-03
1.360272108843537385e-09,-2.413804741082337720e-03,-2.413804741082337720e-03
1.380276110444177744e-09,-2.403119171764053937e-03,-2.403119171764053937e-03
1.400280112044817897e-09,-2.341347956494413754e-03,-2.341347956494413754e-03
1.420284113645458049e-09,-2.229953159938520991e-03,-2.229953159938520991e-03
1.440288115246098408e-09,-2.073332068367482461e-03,-2.073332068367482461e-03
1.460292116846738767e-09,-1.878636902652918491e-03,-1.878636902652918491e-03
1.480296118447378919e-09,-1.655419698090932704e-03,-1.655419698090932704e-03
1.500300120048019072e-09,-1.415120271857354083e-03,-1.415120271857354083e-03
1.520304121648659431e-09,-1.170425343265625671e-03,-1.170425343265625671e-03
1.540308123249299790e-09,-9.345354646149304145e-04,-9.345354646149304145e-04
1.560312124849939942e-09,-7.203828979122515932e-04,-7.203828979122515932e-04
1.580316126450580094e-09,-5.398474946547175603e-04,-5.398474946547175603e-04
1.600320128051220453e-09,-4.030187139308953549e-04,-4.030187139308953549e-04
1.620324129651860812e-09,-3.175500326103772829e-04,-3.175500326103772829e-04
1.640328131252500965e-09,-2.881472268460882370e-04,-2.881472268460882370e-04
1.660332132853141117e-09,-3.162245837567790132e-04,-3.162245837567790132e-04
1.680336134453781476e-09,-3.997534511957995598e-04,-3.997534511957995598e-04
1.700340136054421835e-09,-5.333162116731199375e-04,-5.333162116731199375e-04
1.720344137655061987e-09,-7.083664453235684810e-04,-7.083664453235684810e-04
1.740348139255702140e-09,-9.136834695425175923e-04,-9.136834695425175923e-04
1.760352140856342499e-09,-1.135997379423692687e-03,-1.135997379423692687e-03
1.780356142456982858e-09,-1.360749912653048477e-03,-1.360749912653048477e-03
1.800360144057623010e-09,-1.572947607012975145e-03,-1.572947607012975145e-03
1.820364145658263162e-09,-1.758057379844503009e-03,-1.758057379844503009e-03
1.840368147258903521e-09,-1.902891261460721867e-03,-1.902891261460721867e-03
1.860372148859543880e-09,-1.996426808364478150e-03,-1.996426808364478150e-03
1.880376150460183826e-09,-2.030512764386346262e-03,-2.030512764386346262e-03
1.900380152060824185e-09,-2.000415687295247803e-03,-2.000415687295247803e-03
1.920384153661464544e-09,-1.905172181681742682e-03,-1.905172181681742682e-03
1.940388155262104903e-09,-1.747722568715076499e-03,-1.747722568715076499e-03
1.960392156862745262e-09,-1.534814627716257242e-03,-1.534814627716257242e-03
1.980396158463385208e-09,-1.276679704965364478e-03,-1.276679704965364478e-03
2.000400160064025567e-09,-9.864971823035839291e-04,-9.864971823035839291e-04
2.020404161664665926e-09,-6.796762008984380109e-04,-6.796762008984380109e-04
2.040408163265305871e-09,-3.729948522594277714e-04,-3.729948522594277714e-04
2.060412164865946230e-09,-8.364607553492173350e-05,-8.364607553492173350e-05
2.080416166466586589e-09,1.717543343815069491e-04,1.717543343815069491e-04
2.100420168067226948e-09,3.781393027943882423e-04,3.781393027943882423e-04
2.120424169667867307e-09,5.228839032655556961e-04,5.228839032655556961e-04
2.140428171268507253e-09,5.965669527471543707e-04,5.965669527471543707e-04
2.160432172869147612e-09,5.935543982080890507e-04,5.935543982080890507e-04
2.180436174469787971e-09,5.123682801330902521e-04,5.123682801330902521e-04
2.200440176070427916e-09,3.558174830214452409e-04,3.558174830214452409e-04
2.220444177671068276e-09,1.308804415499204541e-04,1.308804415499204541e-04
2.240448179271708635e-09,-1.516553655833427841e-04,-1.516553655833427841e-04
2.260452180872348994e-09,-4.777778122086989818e-04,-4.777778122086989818e-04
2.280456182472989353e-09,-8.310256476791692956e-04,-8.310256476791692956e-04
2.300460184073629298e-09,-1.193410805599847465e-03,-1.193410805599847465e-03
2.320464185674269657e-09,-1.546434156276717004e-03,-1.546434156276717004e-03
2.340468187274910016e-09,-1.872135494063136571e-03,-1.872135494063136571e-03
2.360472188875549962e-09,-2.154116191387083455e-03,-2.154116191387083455e-03
2.380476190476190321e-09,-2.378474262170654756e-03,-2.378474262170654756e-03
2.400480192076830680e-09,-2.534596500319868939e-03,-2.534596500319868939e-03
2.420484193677471039e-09,-2.615760616730562413e-03,-2.615760616730562413e-03
2.440488195278111398e-09,-2.619511410252789354e-03,-2.619511410252789354e-03
2.460492196878751344e-09,-2.547788318492865377e-03,-2.547788318492865377e-03
2.480496198479391703e-09,-2.406796411156965788e-03,-2.406796411156965788e-03
2.500500200080032062e-09,-2.206628131034526086e-03,-2.206628131034526086e-03
2.520504201680672007e-09,-1.960657939223603170e-03,-1.960657939223603170e-03
2.540508203281312366e-09,-1.684745585283278085e-03,-1.684745585283278085e-03
2.560512204881952725e-09,-1.396295177692427917e-03,-1.396295177692427917e-03
2.580516206482593084e-09,-1.113225878164699183e-03,-1.113225878164699183e-03
2.600520208083233443e-09,-8.529153556449494593e-04,-8.529153556449494593e-04
2.620524209683873389e-09,-6.311787834050726180e-04,-6.311787834050726180e-04
2.640528211284513748e-09,-4.613440380682595158e-04,-4.613440380682595158e-04
2.660532212885154107e-09,-3.534779836973125618e-04,-3.534779836973125618e-04
2.680536214485794052e-09,-3.138096402696311134e-04,-3.138096402696311134e-04
2.700540216086434412e-09,-3.443841885678118522e-04,-3.443841885678118522e-04
2.720544217687074771e-09,-4.429678664198245601e-04,-4.429678664198245601e-04
2.740548219287715130e-09,-6.032087039462344629e-04,-6.032087039462344629e-04
2.760552220888355489e-09,-8.150426427013442729e-04,-8.150426427013442729e-04
2.780556222488995434e-09,-1.065319819432590694e-03,-1.065319819432590694e-03
2.800560224089635793e-09,-1.338612566182215569e-03,-1.338612566182215569e-03
2.820564225690276152e-09,-1.618155788792696118e-03,-1.618155788792696118e-03
2.840568227290916098e-09,-1.886862498072505116e-03,-1.886862498072505116e-03
2.860572228891556457e-09,-2.128352862025512625e-03,-2.128352862025512625e-03
2.880576230492196816e-09,-2.327934491709913924e-03,-2.327934491709913924e-03
2.900580232092837175e-09,-2.473474806745773295e-03,-2.473474806745773295e-03
2.920584233693477534e-09,-2.556113057031573089e-03,-2.556113057031573089e-03
2.940588235294117480e-09,-2.570769492630519803e-03,-2.570769492630519803e-03
2.960592236894757839e-09,-2.516421666797260225e-03,-2.516421666797260225e-03
2.980596238495398198e-09,-2.396132162456183091e-03,-2.396132162456183091e-03
3.000600240096038143e-09,-2.216827273586127918e-03,-2.216827273586127918e-03
3.020604241696678502e-09,-1.988841415808455682e-03,-1.988841415808455682e-03
3.040608243297318861e-09,-1.725256350620726995e-03,-1.725256350620726995e-03
3.060612244897959220e-09,-1.441076807881783942e-03,-1.441076807881783942e-03
3.080616246498599579e-09,-1.152294015109994957e-03,-1.152294015109994957e-03
3.100620248099239525e-09,-8.748953819290686577e-04,-8.748953819290686577e-04
3.120624249699879884e-09,-6.238817313829544834e-04,-6.238817313829544834e-04
3.140628251300520243e-09,-4.123528258911686038e-04,-4.123528258911686038e-04
3.160632252901160188e-09,-2.507175465551390566e-04,-2.507175465551390566e-04
3.180636254501800547e-09,-1.460772232868021245e-04,-1.460772232868021245e-04
3.200640256102440907e-09,-1.018197667802685474e-04,-1.018197667802685474e-04
3.220644257703081266e-09,-1.174490927899736958e-04,-1.174490927899736958e-04
3.240648259303721625e-09,-1.886596684786164934e-04,-1.886596684786164934e-04
3.260652260904361570e-09,-3.076507564311929351e-04,-3.076507564311929351e-04
3.280656262505001929e-09,-4.636600277678576908e-04,-4.636600277678576908e-04
3.300660264105642288e-09,-6.436825836702499571e-04,-6.436825836702499571e-04
3.320664265706282234e-09,-8.333299081813585162e-04,-8.333299081813585162e-04
3.340668267306922593e-09,-1.017774587381212398e-03,-1.017774587381212398e-03
3.360672268907562952e-09,-1.182721309252822862e-03,-1.182721309252822862e-03
3.380676270508203311e-09,-1.315343034867994844e-03,-1.315343034867994844e-03
3.400680272108843670e-09,-1.405123406361917082e-03,-1.405123406361917082e-03
3.420684273709483615e-09,-1.444552296808830757e-03,-1.444552296808830757e-03
3.440688275310123975e-09,-1.429630550828283036e-03,-1.429630550828283036e-03
3.460692276910764334e-09,-1.360151846937092488e-03,-1.360151846937092488e-03
3.480696278511404279e-09,-1.239743497720448805e-03,-1.239743497720448805e-03
3.500700280112044638e-09,-1.075663031666119302e-03,-1.075663031666119302e-03
3.520704281712684997e-09,-8.783626394082949106e-04,-8.783626394082949106e-04
3.540708283313325356e-09,-6.608480718430328376e-04,-6.608480718430328376e-04
3.560712284913965715e-09,-4.378714475613005707e-04,-4.378714475613005707e-04
3.580716286514605661e-09,-2.250078623739246262e-04,-2.250078623739246262e-04
3.600720288115246020e-09,-3.767304470504545500e-05,-3.767304470504545500e-05
3.620724289715886379e-09,1.098568917378206429e-04,1.098568917378206429e-04
3.640728291316526324e-09,2.053625221634642988e-04,2.053625221634642988e-04
3.660732292917166683e-09,2.394777002034614670e-04,2.394777002034614670e-04
3.680736294517807043e-09,2.063156749509157339e-04,2.063156749509157339e-04
3.700740296118447402e-09,1.038851810299944742e-04,1.038851810299944742e-04
3.720744297719087761e-09,-6.573015311360641132e-05,-6.573015311360641132e-05
3.740748299319727706e-09,-2.964411638059007452e-04,-2.964411638059007452e-04
3.760752300920367652e-09,-5.784680235184006111e-04,-5.784680235184006111e-04
3.780756302521008424e-09,-8.988822110697581788e-04,-8.988822110697581788e-04
3.800760304121648370e-09,-1.242343124670741098e-03,-1.242343124670741098e-03
3.820764305722289142e-09,-1.591984827474287722e-03,-1.591984827474287722e-03
3.840768307322929088e-09,-1.930399095950386485e-03,-1.930399095950386485e-03
3.860772308923569033e-09,-2.240654935462959609e-03,-2.240654935462959609e-03
3.880776310524209806e-09,-2.507292408414151397e-03,-2.507292408414151397e-03
3.900780312124849751e-09,-2.717230133637622402e-03,-2.717230133637622402e-03
3.920784313725490524e-09,-2.860531069528840509e-03,-2.860531069528840509e-03
3.940788315326130470e-09,-2.930979864226720358e-03,-2.930979864226720358e-03
3.960792316926770415e-09,-2.926436608861700782e-03,-2.926436608861700782e-03
3.980796318527411188e-09,-2.848945550775560439e-03,-2.848945550775560439e-03
4.000800320128051133e-09,-2.704592364659275886e-03,-2.704592364659275886e-03
4.020804321728691079e-09,-2.503119010929999791e-03,-2.503119010929999791e-03
4.040808323329331851e-09,-2.257320078412458544e-03,-2.257320078412458544e-03
4.060812324929971797e-09,-1.982257893568487722e-03,-1.982257893568487722e-03
4.080816326530611742e-09,-1.694344754201816640e-03,-1.694344754201816640e-03
4.100820328131252515e-09,-1.410348728136556762e-03,-1.410348728136556762e-03
4.120824329731892460e-09,-1.146384048902922368e-03,-1.146384048902922368e-03
4.140828331332533233e-09,-9.169479596000423187e-04,-9.169479596000423187e-04
4.160832332933173179e-09,-7.340628554521261891e-04,-7.340628554521261891e-04
4.180836334533813124e-09,-6.065759445742138073e-04,-6.065759445742138073e-04
4.200840336134453897e-09,-5.396587995605414082e-04,-5.396587995605414082e-04
4.220844337735093842e-09,-5.345367233082531965e-04,-5.345367233082531965e-04
4.240848339335734615e-09,-5.884635755573576401e-04,-5.884635755573576401e-04
4.260852340936374560e-09,-6.949424892930195548e-04,-6.949424892930195548e-04
4.280856342537014506e-09,-8.441776932976098515e-04,-8.441776932976098515e-04
4.300860344137655278e-09,-1.023728392435483423e-03,-1.023728392435483423e-03
4.320864345738295224e-09,-1.219323224503130300e-03,-1.219323224503130300e-03
4.340868347338935169e-09,-1.415783980683866898e-03,-1.415783980683866898e-03
4.360872348939575942e-09,-1.598000652290192374e-03,-1.598000652290192374e-03
4.380876350540215887e-09,-1.751896855870904279e-03,-1.751896855870904279e-03
4.400880352140855833e-09,-1.865325472970716120e-03,-1.865325472970716120e-03
4.420884353741496606e-09,-1.928838864575385670e-03,-1.928838864575385670e-03
4.440888355342136551e-09,-1.936285995589627279e-03,-1.936285995589627279e-03
4.460892356942777324e-09,-1.885199729088995286e-03,-1.885199729088995286e-03
4.480896358543417269e-09,-1.776950738062837640e-03,-1.776950738062837640e-03
4.500900360144057215e-09,-1.616659108330185642e-03,-1.616659108330185642e-03
4.520904361744697987e-09,-1.412869856184487865e-03,-1.412869856184487865e-03
4.540908363345337933e-09,-1.177013312662387057e-03,-1.177013312662387057e-03
4.560912364945978705e-09,-9.226847153144903703e-04,-9.226847153144903703e-04
4.580916366546618651e-09,-6.647885650652266302e-04,-6.647885650652266302e-04
4.600920368147258596e-09,-4.186016540364661523e-04,-4.186016540364661523e-04
4.620924369747899369e-09,-1.988136340434364558e-04,-1.988136340434364558e-04
4.640928371348539315e-09,-1.860527093763575954e-05,-1.860527093763575954e-05
4.660932372949179260e-09,1.111779559653623678e-04,1.111779559653623678e-04
4.680936374549820033e-09,1.827053353576977950e-04,1.827053353576977950e-04
4.700940376150459978e-09,1.916512099259819917e-04,1.916512099259819917e-04
4.720944377751099924e-09,1.374657133625925207e-04,1.374657133625925207e-04
4.740948379351740696e-09,2.340940260724310237e-05,2.340940260724310237e-05
4.760952380952380642e-09,-1.436499645767066275e-04,-1.436499645767066275e-04
4.780956382553021414e-09,-3.536653708445660163e-04,-3.536653708445660163e-04
4.800960384153661360e-09,-5.940360297962260765e-04,-5.940360297962260765e-04
4.820964385754301305e-09,-8.503909517065400946e-04,-8.503909517065400946e-04
4.840968387354942078e-09,-1.107481302343227498e-03,-1.107481302343227498e-03
4.860972388955582023e-09,-1.350125570947435577e-03,-1.350125570947435577e-03
4.880976390556222796e-09,-1.564148381914360394e-03,-1.564148381914360394e-03
4.900980392156862742e-09,-1.737254316096682608e-03,-1.737254316096682608e-03
4.920984393757502687e-09,-1.859782311445168411e-03,-1.859782311445168411e-03
4.940988395358143460e-09,-1.925293818057941496e-03,-1.925293818057941496e-03
4.960992396958783405e-09,-1.930958405781761037e-03,-1.930958405781761037e-03
4.980996398559423351e-09,-1.877713297100056834e-03,-1.877713297100056834e-03
5.001000400160064123e-09,-1.770187517732972919e-03,-1.770187517732972919e-03
5.021004401760704069e-09,-1.616396126346700442e-03,-1.616396126346700442e-03
5.041008403361344014e-09,-1.427224374283685799e-03,-1.427224374283685799e-03
5.061012404961984787e-09,-1.215734753038009552e-03,-1.215734753038009552e-03
5.081016406562624732e-09,-9.963408903603465042e-04,-9.963408903603465042e-04
5.101020408163265505e-09,-7.839004682757642201e-04,-7.839004682757642201e-04
5.121024409763905450e-09,-5.927842477170606854e-04,-5.927842477170606854e-04
5.141028411364545396e-09,-4.359795935075467871e-04,-4.359795935075467871e-04
5.161032412965186169e-09,-3.242845261162822005e-04,-3.242845261162822005e-04
