# Time (s),DUT (V),TEM (V)
0.000000000000000000e+00,8.580480193161087524e-04,2.552907015430160714e-03
2.000400160064025567e-11,6.835986048318582050e-04,2.139882290052301256e-03
4.000800320128051133e-11,4.837252492095916643e-04,1.743465034631001441e-03
6.001200480192076700e-11,2.635741571844186192e-04,1.377153893367300160e-03
8.001600640256102266e-11,2.885886208844658251e-05,1.052796597883134434e-03
1.000200080032012783e-10,-2.143536425220541155e-04,7.801249161204263597e-04
1.200240096038415340e-10,-4.598681187553712007e-04,5.663957394208098736e-04
1.400280112044817897e-10,-7.015875020269676755e-04,4.161538014839830210e-04
1.600320128051220453e-10,-9.337304166429853235e-04,3.311253146077222371e-04
1.800360144057623010e-10,-1.151030226203320767e-03,3.102451831393986744e-04
2.000400160064025567e-10,-1.348907065484476883e-03,3.498137598748084546e-04
2.200440176070428123e-10,-1.523605725216101506e-03,4.437726985805183488e-04
2.400480192076830680e-10,-1.672294025186686671e-03,5.840836581948382570e-04
2.600520208083233237e-10,-1.793118321162828115e-03,7.611887298650834004e-04
2.800560224089635793e-10,-1.885214941411524981e-03,9.645277340781625852e-04
3.000600240096038350e-10,-1.948678526562194150e-03,1.183085154859450736e-03
3.200640256102440907e-10,-1.984490338738206100e-03,1.405938550778985810e-03
3.400680272108843463e-10,-1.994411504248993442e-03,1.622780838591450069e-03
3.600720288115246020e-10,-1.980847761708510058e-03,1.824390834835740421e-03
3.800760304121648577e-10,-1.946693523592127112e-03,2.003029736906407343e-03
4.000800320128051133e-10,-1.895163863919764992e-03,2.152745632069781243e-03
4.200840336134453690e-10,-1.829623381663339661e-03,2.269573386918299473e-03
4.400880352140856247e-10,-1.753420747909253952e-03,2.351623093850351270e-03
4.600920368147258803e-10,-1.669737140052112833e-03,2.399056311870968392e-03
4.800960384153661360e-10,-1.581455738632651193e-03,2.413955304544041641e-03
5.001000400160063916e-10,-1.491058074735180684e-03,2.400096026618751040e-03
5.201040416166466473e-10,-1.400551349962755486e-03,2.362640448836870934e-03
5.401080432172869030e-10,-1.311429003037638090e-03,2.307767687628644194e-03
5.601120448179271586e-10,-1.224664872003575775e-03,2.242266129867824531e-03
5.801160464185674143e-10,-1.140739406746040050e-03,2.173110186744217111e-03
6.001200480192076700e-10,-1.059694627904328489e-03,2.107045422501825725e-03
6.201240496198479256e-10,-9.812130010951472872e-04,2.050204605765763854e-03
6.401280512204881813e-10,-9.047141813347257030e-04,2.007774818653267502e-03
6.601320528211284370e-10,-8.294627445690790210e-04,1.983732293311403147e-03
6.801360544217686926e-10,-7.546796021512232680e-04,1.980657344532386378e-03
7.001400560224089483e-10,-6.796498065995487062e-04,1.999636891151227846e-03
7.201440576230492040e-10,-6.038198947769337667e-04,2.040256895935936392e-03
7.401480592236894596e-10,-5.268787452727023224e-04,2.100681902117305412e-03
7.601520608243297153e-10,-4.488170956349220829e-04,2.177813996422411393e-03
7.801560624249699710e-10,-3.699622987629329514e-04,2.267519252105118423e-03
8.001600640256102266e-10,-2.909865083772370854e-04,2.364906231407716726e-03
8.201640656262504823e-10,-2.128881739472759070e-04,2.464638634727637535e-03
8.401680672268907380e-10,-1.369483951381103462e-04,2.561262792809794291e-03
8.601720688275309936e-10,-6.466523640634055361e-05,2.649530461744166541e-03
8.801760704281712493e-10,2.329556494868118612e-06,2.724698283625667447e-03
9.001800720288115050e-10,6.236594178605862069e-05,2.782787237718085775e-03
9.201840736294517606e-10,1.138368639504053426e-04,2.820788287142677979e-03
9.401880752300919129e-10,1.552989045555967426e-04,2.836804033081742702e-03
9.601920768307322720e-10,1.855658496476677091e-04,2.830120292305107407e-03
9.801960784313726310e-10,2.037891902656231724e-04,2.801205860238400666e-03
1.000200080032012783e-09,2.095204016845174486e-04,2.751643047648154750e-03
1.020204081632652936e-09,2.027509839954131407e-04,2.683995628001784040e-03
1.040208083233293295e-09,1.839276210264457253e-04,2.601624370232831669e-03
1.060212084833933654e-09,1.539413421850221206e-04,2.508463158978260516e-03
1.080216086434573806e-09,1.140911597321127931e-04,2.408770668942985822e-03
1.100220088035213958e-09,6.602420639834953261e-05,2.306873564353169315e-03
1.120224089635854317e-09,1.165582187500056424e-05,2.206917200669025313e-03
1.140228091236494676e-09,-4.692575350752760215e-05,2.112638836958505989e-03
1.160232092837134829e-09,-1.075644955294325798e-04,2.027176505163292598e-03
1.180236094437774981e-09,-1.681453569421364623e-04,1.952924061019341902e-03
1.200240096038415340e-09,-2.267002961399277195e-04,1.891439738241036846e-03
1.220244097639055699e-09,-2.815053725552852694e-04,1.843411952367029951e-03
1.240248099239695851e-09,-3.311632561714748617e-04,1.808682381776503464e-03
1.260252100840336004e-09,-3.746663859776803258e-04,1.786322723747066962e-03
1.280256102440976363e-09,-4.114371839770186896e-04,1.774758206242864561e-03
1.300260104041616722e-09,-4.413431159404563112e-04,1.771928131399138403e-03
1.320264105642256874e-09,-4.646859032932482516e-04,1.775471599332473661e-03
1.340268107242897026e-09,-4.821657405868911314e-04,1.782925231221239295e-03
1.360272108843537385e-09,-4.948228661850727914e-04,1.791919247462390747e-03
1.380276110444177744e-09,-5.039601799311654732e-04,1.800358674140784812e-03
1.400280112044817897e-09,-5.110517195640318366e-04,1.806577708112587846e-03
1.420284113645458049e-09,-5.176426303261014421e-04,1.809457275092870351e-03
1.440288115246098408e-09,-5.252467403456398745e-04,1.808498428374007237e-03
1.460292116846738767e-09,-5.352479596845739762e-04,1.803847284151041371e-03
1.480296118447378919e-09,-5.488114477684234282e-04,1.796270473937097451e-03
1.500300120048019072e-09,-5.668098595772968606e-04,1.787083403956316822e-03
1.520304121648659431e-09,-5.897690247323748641e-04,1.778036735400745924e-03
1.540308123249299790e-09,-6.178361942866451200e-04,1.771169241710113468e-03
1.560312124849939942e-09,-6.507725824650854776e-04,1.768637389292819105e-03
1.580316126450580094e-09,-6.879704211342223177e-04,1.772533492394043255e-03
1.600320128051220453e-09,-7.284932260153489936e-04,1.784705021468830765e-03
1.620324129651860812e-09,-7.711365388353065174e-04,1.806587557198680982e-03
1.640328131252500965e-09,-8.145051469525862575e-04,1.839062990436566344e-03
1.660332132853141117e-09,-8.571017693134041918e-04,1.882352933419782336e-03
1.680336134453781476e-09,-8.974214975115729805e-04,1.935955037136680504e-03
1.700340136054421835e-09,-9.340459368353178646e-04,1.998627150329140845e-03
1.720344137655061987e-09,-9.657310263076245363e-04,2.068421183365548414e-03
1.740348139255702140e-09,-9.914829275146890952e-04,2.142765349618951012e-03
1.760352140856342499e-09,-1.010617134939007780e-03,2.218590348698719090e-03
1.780356142456982858e-09,-1.022797029259455955e-03,2.292492224261197427e-03
1.800360144057623010e-09,-1.028049404294084602e-03,2.360922250194261249e-03
1.820364145658263162e-09,-1.026755967446594479e-03,2.420392419677855345e-03
1.840368147258903521e-09,-1.019621351888265991e-03,2.467684040930533205e-03
1.860372148859543880e-09,-1.007619690691545370e-03,2.500046645867187115e-03
1.880376150460183826e-09,-9.919231942003561234e-04,2.515374909794310110e-03
1.900380152060824185e-09,-9.738173543928364513e-04,2.512352529213480578e-03
1.920384153661464544e-09,-9.546082984539144877e-04,2.490553931876440981e-03
1.940388155262104903e-09,-9.355283698041109769e-04,2.450497178229528190e-03
1.960392156862745262e-09,-9.176461907072605735e-04,2.393644302495382369e-03
1.980396158463385208e-09,-9.017872417685868442e-04,2.322348457171594972e-03
2.000400160064025567e-09,-8.884703898761802049e-04,2.239750376188711679e-03
2.020404161664665926e-09,-8.778648410685546558e-04,2.149629667886667969e-03
2.040408163265305871e-09,-8.697707441180254056e-04,2.056219108637785589e-03
2.060412164865946230e-09,-8.636251988492196687e-04,1.963992272448776121e-03
2.080416166466586589e-09,-8.585338193855861569e-04,1.877436373655338780e-03
2.100420168067226948e-09,-8.533263648317773731e-04,1.800823030239609868e-03
2.120424169667867307e-09,-8.466333798171994576e-04,1.737989729730806060e-03
2.140428171268507253e-09,-8.369793833982229567e-04,1.692144099824162418e-03
2.160432172869147612e-09,-8.228869966293508734e-04,1.665701699328275744e-03
2.180436174469787971e-09,-8.029855817056729805e-04,1.660166041841319500e-03
2.200440176070427916e-09,-7.761175346846833521e-04,1.676057071199625083e-03
2.220444177671068276e-09,-7.414353622055530179e-04,1.712891479153554964e-03
2.240448179271708635e-09,-6.984830878951337309e-04,1.769215265393395825e-03
2.260452180872348994e-09,-6.472563578180137419e-04,1.842685969166379684e-03
2.280456182472989353e-09,-5.882368026870653721e-04,1.930199227983903304e-03
2.300460184073629298e-09,-5.223977009698251191e-04,2.028051905600122568e-03
2.320464185674269657e-09,-4.511796856798292788e-04,2.132132117562585659e-03
2.340468187274910016e-09,-3.764370484497176275e-04,2.238125174667774699e-03
2.360472188875549962e-09,-3.003570089697538787e-04,2.341723830388450691e-03
2.380476190476190321e-09,-2.253560256158347727e-04,2.438831283206314114e-03
2.400480192076830680e-09,-1.539587183545920843e-04,2.525746130866419418e-03
2.420484193677471039e-09,-8.866616321505867734e-05,2.599319841326454793e-03
2.440488195278111398e-09,-3.182112118353091476e-05,2.657079197745254324e-03
2.460492196878751344e-09,1.452187232651164562e-05,2.697308464656756905e-03
2.480496198479391703e-09,4.871373828271995148e-05,2.719088559633448671e-03
2.500500200080032062e-09,6.960816551044646857e-05,2.722293136836746123e-03
2.520504201680672007e-09,7.663278917613754605e-05,2.707544031317286101e-03
2.540508203281312366e-09,6.982944164186543799e-05,2.676130819477250036e-03
2.560512204881952725e-09,4.986041538633240714e-05,2.629901183493056280e-03
2.580516206482593084e-09,1.797962939115784224e-05,2.571130214010172027e-03
2.600520208083233443e-09,-2.403035308810845961e-05,2.502377667601569586e-03
2.620524209683873389e-09,-7.395246679871198849e-05,2.426342472618172631e-03
2.640528211284513748e-09,-1.292555552331364267e-04,2.345723448232175847e-03
2.660532212885154107e-09,-1.872345084803700497e-04,2.263094305008801852e-03
2.680536214485794052e-09,-2.451622927814083247e-04,2.180799605749249564e-03
2.700540216086434412e-09,-3.004451811513543210e-04,2.100876587960120046e-03
2.720544217687074771e-09,-3.507721364774122252e-04,2.025005712972056688e-03
2.740548219287715130e-09,-3.942494678361687299e-04,1.954490655061939287e-03
2.760552220888355489e-09,-4.295125767361810060e-04,1.890266325664029853e-03
2.780556222488995434e-09,-4.558078008329595932e-04,1.832931586860806795e-03
2.800560224089635793e-09,-4.730389869439595072e-04,1.782801674547676053e-03
2.820564225690276152e-09,-4.817753949575446842e-04,1.739974131959508025e-03
2.840568227290916098e-09,-4.832197397931262367e-04,1.704401325954840079e-03
2.860572228891556457e-09,-4.791374946296403912e-04,1.675962424306787647e-03
2.880576230492196816e-09,-4.717508713929856562e-04,1.654528057761228688e-03
2.900580232092837175e-09,-4.636030294347086170e-04,1.640011743943047603e-03
2.920584233693477534e-09,-4.573999130102274690e-04,1.632403444445363911e-03
2.940588235294117480e-09,-4.558385698142173171e-04,1.631782264373602461e-03
2.960592236894757839e-09,-4.614317651695847510e-04,1.638307164280806711e-03
2.980596238495398198e-09,-4.763391153270098719e-04,1.652186501399910022e-03
3.000600240096038143e-09,-5.022147857906824817e-04,1.673629107746065370e-03
3.020604241696678502e-09,-5.400810373220356342e-04,1.702781307926450613e-03
3.040608243297318861e-09,-5.902355879980386490e-04,1.739655653266505668e-03
3.060612244897959220e-09,-6.521989616080084906e-04,1.784058096703626268e-03
3.080616246498599579e-09,-7.247058069809697535e-04,1.835520779289949184e-03
3.100620248099239525e-09,-8.057417195940117741e-04,1.893247502831221351e-03
3.120624249699879884e-09,-8.926245132624384751e-04,1.956078320302427793e-03
3.140628251300520243e-09,-9.821263225665546794e-04,2.022478520387032807e-03
3.160632252901160188e-09,-1.070630513746307797e-03,2.090555685105188743e-03
3.180636254501800547e-09,-1.154315283490892161e-03,2.158106562212656551e-03
3.200640256102440907e-09,-1.229354156142256670e-03,2.222693344462236056e-03
3.220644257703081266e-09,-1.292122452084634200e-03,2.281746730735390461e-03
3.240648259303721625e-09,-1.339398266115743048e-03,2.332691012070758040e-03
3.260652260904361570e-09,-1.368546603312292050e-03,2.373084529054400680e-03
3.280656262505001929e-09,-1.377676073914507965e-03,2.400767323898689819e-03
3.300660264105642288e-09,-1.365758913772111265e-03,2.414006777140411276e-03
3.320664265706282234e-09,-1.332707003288733467e-03,2.411631561783041978e-03
3.340668267306922593e-09,-1.279398904206643104e-03,2.393144417419256539e-03
3.360672268907562952e-09,-1.207655592351711705e-03,2.358805053881514978e-03
3.380676270508203311e-09,-1.120165388733390752e-03,2.309675907250423842e-03
3.400680272108843670e-09,-1.020361423257851521e-03,2.247625419234673076e-03
3.420684273709483615e-09,-9.122576447434055597e-04,2.175285886114350191e-03
3.440688275310123975e-09,-8.002517649163115847e-04,2.095965587365845179e-03
3.460692276910764334e-09,-6.889054554197973244e-04,2.013517696425036387e-03
3.480696278511404279e-09,-5.827134921896916751e-04,1.932171224150308880e-03
3.500700280112044638e-09,-4.858742779126248423e-04,1.856331775202983096e-03
3.520704281712684997e-09,-4.020742232298360778e-04,1.790362043973905233e-03
3.540708283313325356e-09,-3.342978218934559639e-04,1.738353595074856785e-03
3.560712284913965715e-09,-2.846739445278538149e-04,1.703902448505892125e-03
3.580716286514605661e-09,-2.543669681767304750e-04,1.689901243427964581e-03
3.600720288115246020e-09,-2.435189568876680556e-04,1.698360251908958424e-03
3.620724289715886379e-09,-2.512463433612675866e-04,1.730268265820796665e-03
3.640728291316526324e-09,-2.756915857733891048e-04,1.785502443021120232e-03
3.660732292917166683e-09,-3.141272527766771224e-04,1.862793673168720594e-03
3.680736294517807043e-09,-3.631070924953807037e-04,1.959751047027750645e-03
3.700740296118447402e-09,-4.186560311370615683e-04,2.072945754021965608e-03
3.720744297719087761e-09,-4.764888714453328422e-04,2.198051379479032744e-03
3.740748299319727706e-09,-5.322458446196716040e-04,2.330034322903956102e-03
3.760752300920367652e-09,-5.817322045963725652e-04,2.463385106347498743e-03
3.780756302521008424e-09,-6.211487974048517536e-04,2.592378867381182721e-03
3.800760304121648370e-09,-6.473010076089043665e-04,2.711351488388116272e-03
3.820764305722289142e-09,-6.577746546442726772e-04,2.814976721306036451e-03
3.840768307322929088e-09,-6.510692205136525820e-04,2.898529399915548976e-03
3.860772308923569033e-09,-6.266811369221244894e-04,2.958120417258100314e-03
3.880776310524209806e-09,-5.851326139920579690e-04,2.990890560322375692e-03
3.900780312124849751e-09,-5.279445003120918035e-04,2.995152464624263166e-03
3.920784313725490524e-09,-4.575547567229223782e-04,2.970472758803348323e-03
3.940788315326130470e-09,-3.771871302906275357e-04,2.917689755847975575e-03
3.960792316926770415e-09,-2.906773614953863955e-04,2.838865625022331945e-03
3.980796318527411188e-09,-2.022665922793151017e-04,2.737175640017392060e-03
4.000800320128051133e-09,-1.163734339628436657e-04,2.616740630586509870e-03
4.020804321728691079e-09,-3.735730157712088926e-05,2.482411959323099597e-03
4.040808323329331851e-09,3.071393922791790173e-05,2.339521013232152141e-03
4.060812324929971797e-09,8.427925878515820323e-05,2.193607182329776473e-03
4.080816326530611742e-09,1.204709360820886504e-04,2.050139475467132547e-03
4.100820328131252515e-09,1.372621325715618840e-04,1.914247224915607837e-03
4.120824329731892460e-09,1.335677052824704367e-04,1.790474735782847425e-03
4.140828331332533233e-09,1.092930538227288517e-04,1.682573277182234121e-03
4.160832332933173179e-09,6.532873388594815527e-05,1.593341573984905684e-03
4.180836334533813124e-09,3.491621919438053412e-06,1.524523072440585499e-03
4.200840336134453897e-09,-7.358359207283387909e-05,1.476764890523654802e-03
4.220844337735093842e-09,-1.625960440187983040e-04,1.449639724083335787e-03
4.240848339335734615e-09,-2.597645515628147915e-04,1.441728279354654186e-03
4.260852340936374560e-09,-3.610369138736187243e-04,1.450756261808786984e-03
4.280856342537014506e-09,-4.623106508709316515e-04,1.473776782162174431e-03
4.300860344137655278e-09,-5.596526365846684432e-04,1.507386432087396344e-03
4.320864345738295224e-09,-6.495052601012203837e-04,1.547961390719362722e-03
4.340868347338935169e-09,-7.288676320217449571e-04,1.591898861326043052e-03
4.360872348939575942e-09,-7.954418902712657004e-04,1.635848968406374698e-03
4.380876350540215887e-09,-8.477367547938702850e-04,1.676922977947106069e-03
4.400880352140855833e-09,-8.851230124941682730e-04,1.712865291947398595e-03
4.420884353741496606e-09,-9.078384333202172774e-04,1.742179014954271929e-03
4.440888355342136551e-09,-9.169425611067927740e-04,1.764197851421195166e-03
4.460892356942777324e-09,-9.142247176672439312e-04,1.779100486842788128e-03
4.480896358543417269e-09,-9.020712380238602281e-04,1.787867224886221249e-03
4.500900360144057215e-09,-8.833002641540024400e-04,1.792182275216848029e-03
4.520904361744697987e-09,-8.609742318780573642e-04,1.794288490009880331e-03
4.540908363345337933e-09,-8.382013879782257253e-04,1.796804321968944931e-03
4.560912364945978705e-09,-8.179382054492540053e-04,1.802515139682118496e-03
4.580916366546618651e-09,-8.028043965729324315e-04,1.814152641191755155e-03
4.600920368147258596e-09,-7.949213699006920817e-04,1.834176853855108442e-03
4.620924369747899369e-09,-7.957834919376416578e-04,1.864575050553511724e-03
4.640928371348539315e-09,-8.061694879049828262e-04,1.906690857268529549e-03
4.660932372949179260e-09,-8.260988704149658428e-04,1.961094938429842546e-03
4.680936374549820033e-09,-8.548355664244384642e-04,2.027506039228460857e-03
4.700940376150459978e-09,-8.909380831926012184e-04,2.104767997915856295e-03
4.720944377751099924e-09,-9.323527809092057965e-04,2.190884810623211065e-03
4.740948379351740696e-09,-9.765442670431256564e-04,2.283112154269256559e-03
4.760952380952380642e-09,-1.020654745606714570e-03,2.378100177412773887e-03
4.780956382553021414e-09,-1.061682471373909947e-03,2.472079078115231587e-03
4.800960384153661360e-09,-1.096668372667639231e-03,2.561076207849891182e-03
4.820964385754301305e-09,-1.122879479045020036e-03,2.641151346504013852e-03
4.840968387354942078e-09,-1.137978045187869065e-03,2.708635519367728547e-03
4.860972388955582023e-09,-1.140166182103175821e-03,2.760358356578126917e-03
4.880976390556222796e-09,-1.128297334418173602e-03,2.793849557372855494e-03
4.900980392156862742e-09,-1.101947985121304449e-03,2.807501486940843123e-03
4.920984393757502687e-09,-1.061445403055352385e-03,2.800682217988461134e-03
4.940988395358143460e-09,-1.007849927176950999e-03,2.773791296744023728e-03
4.960992396958783405e-09,-9.428930440158658083e-04,2.728253985439178970e-03
4.980996398559423351e-09,-8.688751950387926977e-04,2.666453499566357518e-03
5.001000400160064123e-09,-7.885296879379433176e-04,2.591604588194521257e-03
5.021004401760704069e-09,-7.048611340426907783e-04,2.507575463664184906e-03
5.041008403361344014e-09,-6.209683702438871522e-04,2.418668346400099263e-03
5.061012404961984787e-09,-5.398627558309713808e-04,2.329371547628965398e-03
5.081016406562624732e-09,-4.642930064417733925e-04,2.244097899296839272e-03
5.101020408163265505e-09,-3.965873224045022953e-04,2.166925334364698356e-03
5.121024409763905450e-09,-3.385225111369084155e-04,2.101355453696175744e-03
5.141028411364545396e-09,-2.912281561213477671e-04,2.050104978103819368e-03
5.161032412965186169e-09,-2.551317468664543366e-04,2.014943125303751692e-03
5.181036414565826114e-09,-2.299481833356764756e-04,1.996585277785373203e-03
5.201040416166466887e-09,-2.147143546681283533e-04,1.994649975768705234e-03
5.221044417767106832e-09,-2.078667287706016100e-04,2.007682477685528936e-03
5.241048419367746778e-09,-2.073572429672463388e-04,2.033244106703730510e-03
