# Time (s),DUT (V),TEM (V)
0.000000000000000000e+00,-8.401996426964514209e-04,-8.401996426964514209e-04
2.000400160064025567e-11,-8.297020492915895603e-04,-8.297020492915895603e-04
4.000800320128051133e-11,-8.277066325742748554e-04,-8.277066325742748554e-04
6.001200480192076700e-11,-8.375525715042848483e-04,-8.375525715042848483e-04
8.001600640256102266e-11,-8.624551253362013059e-04,-8.624551253362013059e-04
1.000200080032012783e-10,-9.052204210728751182e-04,-9.052204210728751182e-04
1.200240096038415340e-10,-9.679650443533429315e-04,-9.679650443533429315e-04
1.400280112044817897e-10,-1.051860659924832827e-03,-1.051860659924832827e-03
1.600320128051220453e-10,-1.156923107101015796e-03,-1.156923107101015796e-03
1.800360144057623010e-10,-1.281863314069999881e-03,-1.281863314069999881e-03
2.000400160064025567e-10,-1.424014051964193287e-03,-1.424014051964193287e-03
2.200440176070428123e-10,-1.579342185827743239e-03,-1.579342185827743239e-03
2.400480192076830680e-10,-1.742550926923465545e-03,-1.742550926923465545e-03
2.600520208083233237e-10,-1.907270957762558687e-03,-1.907270957762558687e-03
2.800560224089635793e-10,-2.066333534540896414e-03,-2.066333534540896414e-03
3.000600240096038350e-10,-2.212113134979948152e-03,-2.212113134979948152e-03
3.200640256102440907e-10,-2.336922270777869268e-03,-2.336922270777869268e-03
3.400680272108843463e-10,-2.433437052398467176e-03,-2.433437052398467176e-03
3.600720288115246020e-10,-2.495129259375639466e-03,-2.495129259375639466e-03
3.800760304121648577e-10,-2.516679242947059570e-03,-2.516679242947059570e-03
4.000800320128051133e-10,-2.494344097956479201e-03,-2.494344097956479201e-03
4.200840336134453690e-10,-2.426257223275827320e-03,-2.426257223275827320e-03
4.400880352140856247e-10,-2.312638583536791477e-03,-2.312638583536791477e-03
4.600920368147258803e-10,-2.155899534042418977e-03,-2.155899534042418977e-03
4.800960384153661360e-10,-1.960631732751111096e-03,-1.960631732751111096e-03
5.001000400160063916e-10,-1.733476122056375928e-03,-1.733476122056375928e-03
5.201040416166466473e-10,-1.482874847140494166e-03,-1.482874847140494166e-03
5.401080432172869030e-10,-1.218715881785839214e-03,-1.218715881785839214e-03
5.601120448179271586e-10,-9.518866421336391083e-04,-9.518866421336391083e-04
5.801160464185674143e-10,-6.937585852535151868e-04,-6.937585852535151868e-04
6.001200480192076700e-10,-4.556293541902676483e-04,-4.556293541902676483e-04
6.201240496198479256e-10,-2.481521489096772510e-04,-2.481521489096772510e-04
6.401280512204881813e-10,-8.078345957894457778e-05,-8.078345957894457778e-05
6.601320528211284370e-10,3.872002281159967743e-05,3.872002281159967743e-05
6.801360544217686926e-10,1.047266165445694401e-04,1.047266165445694401e-04
7.001400560224089483e-10,1.140520891557255387e-04,1.140520891557255387e-04
7.201440576230492040e-10,6.615974941653939229e-05,6.615974941653939229e-05
7.401480592236894596e-10,-3.677486008487725814e-05,-3.677486008487725814e-05
7.601520608243297153e-10,-1.899403454405374902e-04,-1.899403454405374902e-04
7.801560624249699710e-10,-3.861047889554166377e-04,-3.861047889554166377e-04
8.001600640256102266e-10,-6.159601057254724624e-04,-6.159601057254724624e-04
8.201640656262504823e-10,-8.685782007263834897e-04,-8.685782007263834897e-04
8.401680672268907380e-10,-1.131955289192776090e-03,-1.131955289192776090e-03
8.601720688275309936e-10,-1.393615619541011767e-03,-1.393615619541011767e-03
8.801760704281712493e-10,-1.641242308708286152e-03,-1.641242308708286152e-03
9.001800720288115050e-10,-1.863301282146110445e-03,-1.863301282146110445e-03
9.201840736294517606e-10,-2.049624517385725733e-03,-2.049624517385725733e-03
9.401880752300919129e-10,-2.191920921152821101e-03,-2.191920921152821101e-03
9.601920768307322720e-10,-2.284187112269096386e-03,-2.284187112269096386e-03
9.801960784313726310e-10,-2.322995915702639590e-03,-2.322995915702639590e-03
1.000200080032012783e-09,-2.307647182144358967e-03,-2.307647182144358967e-03
1.020204081632652936e-09,-2.240173241111365933e-03,-2.240173241111365933e-03
1.040208083233293295e-09,-2.125199429175314569e-03,-2.125199429175314569e-03
1.060212084833933654e-09,-1.969668236800657148e-03,-1.969668236800657148e-03
1.080216086434573806e-09,-1.782443216726948111e-03,-1.782443216726948111e-03
1.100220088035213958e-09,-1.573815452138365920e-03,-1.573815452138365920e-03
1.120224089635854317e-09,-1.354940707735460305e-03,-1.354940707735460305e-03
1.140228091236494676e-09,-1.137239073518287770e-03,-1.137239073518287770e-03
1.160232092837134829e-09,-9.317907488589590500e-04,-9.317907488589590500e-04
1.180236094437774981e-09,-7.487615021838031366e-04,-7.487615021838031366e-04
1.200240096038415340e-09,-5.968892938857290904e-04,-5.968892938857290904e-04
1.220244097639055699e-09,-4.830596963133871962e-04,-4.830596963133871962e-04
1.240248099239695851e-09,-4.119923211064386616e-04,-4.119923211064386616e-04
1.260252100840336004e-09,-3.860537996586464000e-04,-3.860537996586464000e-04
1.280256102440976363e-09,-4.052053586622758304e-04,-4.052053586622758304e-04
1.300260104041616722e-09,-4.670851394793577556e-04,-4.670851394793577556e-04
1.320264105642256874e-09,-5.672175986223357974e-04,-5.672175986223357974e-04
1.340268107242897026e-09,-6.993350607003370484e-04,-6.993350607003370484e-04
1.360272108843537385e-09,-8.557902032900086779e-04,-8.557902032900086779e-04
1.380276110444177744e-09,-1.028033302658015215e-03,-1.028033302658015215e-03
1.400280112044817897e-09,-1.207124744282339710e-03,-1.207124744282339710e-03
1.420284113645458049e-09,-1.384251786757291231e-03,-1.384251786757291231e-03
1.440288115246098408e-09,-1.551218935107464593e-03,-1.551218935107464593e-03
1.460292116846738767e-09,-1.700883488106283295e-03,-1.700883488106283295e-03
1.480296118447378919e-09,-1.827511720416481657e-03,-1.827511720416481657e-03
1.500300120048019072e-09,-1.927036488884319989e-03,-1.927036488884319989e-03
1.520304121648659431e-09,-1.997203472024964167e-03,-1.997203472024964167e-03
1.540308123249299790e-09,-2.037600357140156079e-03,-2.037600357140156079e-03
1.560312124849939942e-09,-2.049570636035769750e-03,-2.049570636035769750e-03
1.580316126450580094e-09,-2.036020801854212733e-03,-2.036020801854212733e-03
1.600320128051220453e-09,-2.001136216760692008e-03,-2.001136216760692008e-03
1.620324129651860812e-09,-1.950026347612150972e-03,-1.950026347612150972e-03
1.640328131252500965e-09,-1.888324116960530055e-03,-1.888324116960530055e-03
1.660332132853141117e-09,-1.821766550629445088e-03,-1.821766550629445088e-03
1.680336134453781476e-09,-1.755784584141643727e-03,-1.755784584141643727e-03
1.700340136054421835e-09,-1.695128792638136289e-03,-1.695128792638136289e-03
1.720344137655061987e-09,-1.643555018593300613e-03,-1.643555018593300613e-03
1.740348139255702140e-09,-1.603589580507748307e-03,-1.603589580507748307e-03
1.760352140856342499e-09,-1.576388239225525638e-03,-1.576388239225525638e-03
1.780356142456982858e-09,-1.561696737107067662e-03,-1.561696737107067662e-03
1.800360144057623010e-09,-1.557913921710955352e-03,-1.557913921710955352e-03
1.820364145658263162e-09,-1.562251658606098222e-03,-1.562251658606098222e-03
1.840368147258903521e-09,-1.570979364343892855e-03,-1.570979364343892855e-03
1.860372148859543880e-09,-1.579735457944573184e-03,-1.579735457944573184e-03
1.880376150460183826e-09,-1.583883689780411514e-03,-1.583883689780411514e-03
1.900380152060824185e-09,-1.578889435379296404e-03,-1.578889435379296404e-03
1.920384153661464544e-09,-1.560689818602986265e-03,-1.560689818602986265e-03
1.940388155262104903e-09,-1.526032028022854736e-03,-1.526032028022854736e-03
1.960392156862745262e-09,-1.472756375625186099e-03,-1.472756375625186099e-03
1.980396158463385208e-09,-1.400004373484080300e-03,-1.400004373484080300e-03
2.000400160064025567e-09,-1.308337128022461250e-03,-1.308337128022461250e-03
2.020404161664665926e-09,-1.199755345777318502e-03,-1.199755345777318502e-03
2.040408163265305871e-09,-1.077618819454623971e-03,-1.077618819454623971e-03
2.060412164865946230e-09,-9.464699910314389002e-04,-9.464699910314389002e-04
2.080416166466586589e-09,-8.117726318159206467e-04,-8.117726318159206467e-04
2.100420168067226948e-09,-6.795824173536519361e-04,-6.795824173536519361e-04
2.120424169667867307e-09,-5.561708319965639113e-04,-5.561708319965639113e-04
2.140428171268507253e-09,-4.476271066259679583e-04,-4.476271066259679583e-04
2.160432172869147612e-09,-3.594645547812604135e-04,-3.594645547812604135e-04
2.180436174469787971e-09,-2.962576114500554839e-04,-2.962576114500554839e-04
2.200440176070427916e-09,-2.613340898240417071e-04,-2.613340898240417071e-04
2.220444177671068276e-09,-2.565437606253316268e-04,-2.565437606253316268e-04
2.240448179271708635e-09,-2.821195374782459924e-04,-2.821195374782459924e-04
2.260452180872348994e-09,-3.366416236545484593e-04,-3.366416236545484593e-04
2.280456182472989353e-09,-4.171083169131175662e-04,-4.171083169131175662e-04
2.300460184073629298e-09,-5.191102061219102660e-04,-5.191102061219102660e-04
2.320464185674269657e-09,-6.370976744305953442e-04,-6.370976744305953442e-04
2.340468187274910016e-09,-7.647253914983122378e-04,-7.647253914983122378e-04
2.360472188875549962e-09,-8.952522398900804833e-04,-8.952522398900804833e-04
2.380476190476190321e-09,-1.021971225857185158e-03,-1.021971225857185158e-03
2.400480192076830680e-09,-1.138641636718508128e-03,-1.138641636718508128e-03
2.420484193677471039e-09,-1.239895189692068016e-03,-1.239895189692068016e-03
2.440488195278111398e-09,-1.321589222154464496e-03,-1.321589222154464496e-03
2.460492196878751344e-09,-1.381083036738160004e-03,-1.381083036738160004e-03
2.480496198479391703e-09,-1.417418159313328738e-03,-1.417418159313328738e-03
2.500500200080032062e-09,-1.431389214046194540e-03,-1.431389214046194540e-03
2.520504201680672007e-09,-1.425499001952584789e-03,-1.425499001952584789e-03
2.540508203281312366e-09,-1.403798758952246040e-03,-1.403798758952246040e-03
2.560512204881952725e-09,-1.371622000938434302e-03,-1.371622000938434302e-03
2.580516206482593084e-09,-1.335227363776132726e-03,-1.335227363776132726e-03
2.600520208083233443e-09,-1.301371964629063210e-03,-1.301371964629063210e-03
2.620524209683873389e-09,-1.276841647682223739e-03,-1.276841647682223739e-03
2.640528211284513748e-09,-1.267967708876902109e-03,-1.267967708876902109e-03
2.660532212885154107e-09,-1.280161095087288883e-03,-1.280161095087288883e-03
2.680536214485794052e-09,-1.317494530488212820e-03,-1.317494530488212820e-03
2.700540216086434412e-09,-1.382360544937444357e-03,-1.382360544937444357e-03
2.720544217687074771e-09,-1.475229095997844216e-03,-1.475229095997844216e-03
2.740548219287715130e-09,-1.594522632474683864e-03,-1.594522632474683864e-03
2.760552220888355489e-09,-1.736619388366421931e-03,-1.736619388366421931e-03
2.780556222488995434e-09,-1.895987847239824324e-03,-1.895987847239824324e-03
2.800560224089635793e-09,-2.065447157833982632e-03,-2.065447157833982632e-03
2.820564225690276152e-09,-2.236540316634138149e-03,-2.236540316634138149e-03
2.840568227290916098e-09,-2.399999660457093412e-03,-2.399999660457093412e-03
2.860572228891556457e-09,-2.546278092652679709e-03,-2.546278092652679709e-03
2.880576230492196816e-09,-2.666114894959507355e-03,-2.666114894959507355e-03
2.900580232092837175e-09,-2.751102256551515336e-03,-2.751102256551515336e-03
2.920584233693477534e-09,-2.794217974485495651e-03,-2.794217974485495651e-03
2.940588235294117480e-09,-2.790291213680055719e-03,-2.790291213680055719e-03
2.960592236894757839e-09,-2.736371698388691959e-03,-2.736371698388691959e-03
2.980596238495398198e-09,-2.631978052674675914e-03,-2.631978052674675914e-03
3.000600240096038143e-09,-2.479207910036725429e-03,-2.479207910036725429e-03
3.020604241696678502e-09,-2.282700468712046959e-03,-2.282700468712046959e-03
3.040608243297318861e-09,-2.049450901101586980e-03,-2.049450901101586980e-03
3.060612244897959220e-09,-1.788484908906807797e-03,-1.788484908906807797e-03
3.080616246498599579e-09,-1.510410211238662854e-03,-1.510410211238662854e-03
3.100620248099239525e-09,-1.226869340983696363e-03,-1.226869340983696363e-03
3.120624249699879884e-09,-9.499243353935754282e-04,-9.499243353935754282e-04
3.140628251300520243e-09,-6.914083501235952821e-04,-6.914083501235952821e-04
3.160632252901160188e-09,-4.622816157551632625e-04,-4.622816157551632625e-04
3.180636254501800547e-09,-2.720293284671136637e-04,-2.720293284671136637e-04
3.200640256102440907e-09,-1.281369914083552533e-04,-1.281369914083552533e-04
3.220644257703081266e-09,-3.567450590697811849e-05,-3.567450590697811849e-05
3.240648259303721625e-09,2.985812126427413258e-06,2.985812126427413258e-06
3.260652260904361570e-09,-1.170020760672137823e-05,-1.170020760672137823e-05
3.280656262505001929e-09,-7.647817003646641533e-05,-7.647817003646641533e-05
3.300660264105642288e-09,-1.854841862579990430e-04,-1.854841862579990430e-04
3.320664265706282234e-09,-3.305833936554274446e-04,-3.305833936554274446e-04
3.340668267306922593e-09,-5.018390236490572311e-04,-5.018390236490572311e-04
3.360672268907562952e-09,-6.880853267651482067e-04,-6.880853267651482067e-04
3.380676270508203311e-09,-8.775714164915076818e-04,-8.775714164915076818e-04
3.400680272108843670e-09,-1.058638768078639953e-03,-1.058638768078639953e-03
3.420684273709483615e-09,-1.220392974050538409e-03,-1.220392974050538409e-03
3.440688275310123975e-09,-1.353330552158785735e-03,-1.353330552158785735e-03
3.460692276910764334e-09,-1.449884121920336699e-03,-1.449884121920336699e-03
3.480696278511404279e-09,-1.504853971014764912e-03,-1.504853971014764912e-03
3.500700280112044638e-09,-1.515700649245766123e-03,-1.515700649245766123e-03
3.520704281712684997e-09,-1.482681366400569190e-03,-1.482681366400569190e-03
3.540708283313325356e-09,-1.408822149541872704e-03,-1.408822149541872704e-03
3.560712284913965715e-09,-1.299727389683695989e-03,-1.299727389683695989e-03
3.580716286514605661e-09,-1.163238001062565866e-03,-1.163238001062565866e-03
3.600720288115246020e-09,-1.008958355625357625e-03,-1.008958355625357625e-03
3.620724289715886379e-09,-8.476799064264273513e-04,-8.476799064264273513e-04
3.640728291316526324e-09,-6.907355123640076047e-04,-6.907355123640076047e-04
3.660732292917166683e-09,-5.493225576496780452e-04,-5.493225576496780452e-04
3.680736294517807043e-09,-4.338347778713383808e-04,-4.338347778713383808e-04
3.700740296118447402e-09,-3.532421513303739898e-04,-3.532421513303739898e-04
3.720744297719087761e-09,-3.145553226158289079e-04,-3.145553226158289079e-04
3.740748299319727706e-09,-3.224059685768108246e-04,-3.224059685768108246e-04
3.760752300920367652e-09,-3.787675983365604336e-04,-3.787675983365604336e-04
3.780756302521008424e-09,-4.828329137852553502e-04,-4.828329137852553502e-04
3.800760304121648370e-09,-6.310545467177349193e-04,-6.310545467177349193e-04
3.820764305722289142e-09,-8.173462914117736629e-04,-8.173462914117736629e-04
3.840768307322929088e-09,-1.033432447593388495e-03,-1.033432447593388495e-03
3.860772308923569033e-09,-1.269324146638262140e-03,-1.269324146638262140e-03
3.880776310524209806e-09,-1.513894075117265276e-03,-1.513894075117265276e-03
3.900780312124849751e-09,-1.755515277947365888e-03,-1.755515277947365888e-03
3.920784313725490524e-09,-1.982726057301458043e-03,-1.982726057301458043e-03
3.940788315326130470e-09,-2.184881596918333835e-03,-2.184881596918333835e-03
3.960792316926770415e-09,-2.352753910740045407e-03,-2.352753910740045407e-03
3.980796318527411188e-09,-2.479044974094650987e-03,-2.479044974094650987e-03
4.000800320128051133e-09,-2.558783241479622560e-03,-2.558783241479622560e-03
4.020804321728691079e-09,-2.589580858839330996e-03,-2.589580858839330996e-03
4.040808323329331851e-09,-2.571737306669759620e-03,-2.571737306669759620e-03
4.060812324929971797e-09,-2.508184451535870434e-03,-2.508184451535870434e-03
4.080816326530611742e-09,-2.404277478685333362e-03,-2.404277478685333362e-03
4.100820328131252515e-09,-2.267445355184592986e-03,-2.267445355184592986e-03
4.120824329731892460e-09,-2.106722780668936722e-03,-2.106722780668936722e-03
4.140828331332533233e-09,-1.932192525377431341e-03,-1.932192525377431341e-03
4.160832332933173179e-09,-1.754372221220413001e-03,-1.754372221220413001e-03
4.180836334533813124e-09,-1.583582758963246462e-03,-1.583582758963246462e-03
4.200840336134453897e-09,-1.429336278048863032e-03,-1.429336278048863032e-03
4.220844337735093842e-09,-1.299780277146167940e-03,-1.299780277146167940e-03
4.240848339335734615e-09,-1.201230724116179958e-03,-1.201230724116179958e-03
4.260852340936374560e-09,-1.137821436801518147e-03,-1.137821436801518147e-03
4.280856342537014506e-09,-1.111289791348991658e-03,-1.111289791348991658e-03
4.300860344137655278e-09,-1.120910438681735821e-03,-1.120910438681735821e-03
4.320864345738295224e-09,-1.163579686255280556e-03,-1.163579686255280556e-03
4.340868347338935169e-09,-1.234044081745335657e-03,-1.234044081745335657e-03
4.360872348939575942e-09,-1.325258070912509970e-03,-1.325258070912509970e-03
4.380876350540215887e-09,-1.428847915698804125e-03,-1.428847915698804125e-03
4.400880352140855833e-09,-1.535652810152400008e-03,-1.535652810152400008e-03
4.420884353741496606e-09,-1.636309690324031299e-03,-1.636309690324031299e-03
4.440888355342136551e-09,-1.721845856849099545e-03,-1.721845856849099545e-03
4.460892356942777324e-09,-1.784243345273544157e-03,-1.784243345273544157e-03
4.480896358543417269e-09,-1.816940984596285974e-03,-1.816940984596285974e-03
4.500900360144057215e-09,-1.815244140962039279e-03,-1.815244140962039279e-03
4.520904361744697987e-09,-1.776617988822146860e-03,-1.776617988822146860e-03
4.540908363345337933e-09,-1.700847416790940208e-03,-1.700847416790940208e-03
4.560912364945978705e-09,-1.590054906471273077e-03,-1.590054906471273077e-03
4.580916366546618651e-09,-1.448576410594181949e-03,-1.448576410594181949e-03
4.600920368147258596e-09,-1.282703868661428433e-03,-1.282703868661428433e-03
4.620924369747899369e-09,-1.100311009302927870e-03,-1.100311009302927870e-03
4.640928371348539315e-09,-9.103860149527017364e-04,-9.103860149527017364e-04
4.660932372949179260e-09,-7.225000525650286621e-04,-7.225000525650286621e-04
4.680936374549820033e-09,-5.462442853523669355e-04,-5.462442853523669355e-04
4.700940376150459978e-09,-3.906695702903500555e-04,-3.906695702903500555e-04
4.720944377751099924e-09,-2.637625354534112784e-04,-2.637625354534112784e-04
4.740948379351740696e-09,-1.719891707622981779e-04,-1.719891707622981779e-04
4.760952380952380642e-09,-1.199326316135800578e-04,-1.199326316135800578e-04
4.780956382553021414e-09,-1.100459369748719789e-04,-1.100459369748719789e-04
4.800960384153661360e-09,-1.425330266663556189e-04,-1.425330266663556189e-04
4.820964385754301305e-09,-2.153636819660868101e-04,-2.153636819660868101e-04
4.840968387354942078e-09,-3.244196063958590349e-04,-3.244196063958590349e-04
4.860972388955582023e-09,-4.637610173121224730e-04,-4.637610173121224730e-04
4.880976390556222796e-09,-6.259959007004654505e-04,-6.259959007004654505e-04
4.900980392156862742e-09,-8.027280675305975988e-04,-8.027280675305975988e-04
4.920984393757502687e-09,-9.850556789509070862e-04,-9.850556789509070862e-04
4.940988395358143460e-09,-1.164089239247021162e-03,-1.164089239247021162e-03
4.960992396958783405e-09,-1.331457335257975111e-03,-1.331457335257975111e-03
4.980996398559423351e-09,-1.479769651822780349e-03,-1.479769651822780349e-03
5.001000400160064123e-09,-1.603009914931788826e-03,-1.603009914931788826e-03
5.021004401760704069e-09,-1.696836192117215543e-03,-1.696836192117215543e-03
5.041008403361344014e-09,-1.758772096538016973e-03,-1.758772096538016973e-03
5.061012404961984787e-09,-1.788279499934025425e-03,-1.788279499934025425e-03
5.081016406562624732e-09,-1.786710907773617941e-03,-1.786710907773617941e-03
5.101020408163265505e-09,-1.757147208808170760e-03,-1.757147208808170760e-03
5.121024409763905450e-09,-1.704133606058356749e-03,-1.704133606058356749e-03
5.141028411364545396e-09,-1.633332725801180585e-03,-1.633332725801180585e-03
5.161032412965186169e-09,-1.551118805268214725e-03,-1.551118805268214725e-03
