# Time (s),DUT (V),TEM (V)
0.000000000000000000e+00,-6.937982101347136936e-04,-1.655582252752373779e-04
2.000400160064025567e-11,-8.758550343489862567e-04,2.575278464247438416e-04
4.000800320128051133e-11,-1.063982848403022740e-03,5.427015891267827647e-04
6.001200480192076700e-11,-1.252933347097155399e-03,6.811014117985941764e-04
8.001600640256102266e-11,-1.436891477168363886e-03,6.731736509479698980e-04
1.000200080032012783e-10,-1.609722192011322269e-03,5.284519843267279681e-04
1.200240096038415340e-10,-1.765247636972268070e-03,2.647772423777197313e-04
1.400280112044817897e-10,-1.897539966905712134e-03,-9.298683703972038023e-05
1.600320128051220453e-10,-2.001213814653342565e-03,-5.146557685887671050e-04
1.800360144057623010e-10,-2.071702178051839250e-03,-9.667333172811609816e-04
2.000400160064025567e-10,-2.105500191412885708e-03,-1.414598474480770630e-03
2.200440176070428123e-10,-2.100362855644268261e-03,-1.824731953546001716e-03
2.400480192076830680e-10,-2.055445225537941550e-03,-2.166842846544220127e-03
2.600520208083233237e-10,-1.971376651140676044e-03,-2.415763852035899325e-03
2.800560224089635793e-10,-1.850264260898488262e-03,-2.552999352758726984e-03
3.000600240096038350e-10,-1.695624747341668327e-03,-2.567833524862476666e-03
3.200640256102440907e-10,-1.512247445662099005e-03,-2.457934103677103521e-03
3.400680272108843463e-10,-1.305995453704277606e-03,-2.229419590866948096e-03
3.600720288115246020e-10,-1.083554912169848363e-03,-1.896391526176749833e-03
3.800760304121648577e-10,-8.521453539660217569e-04,-1.479966840391850388e-03
4.000800320128051133e-10,-6.192060847735461138e-04,-1.006876178746227753e-03
4.200840336134453690e-10,-3.920747606202192753e-04,-5.077205363096600095e-04
4.400880352140856247e-10,-1.776746206814147730e-04,-1.499897242491430834e-05
4.600920368147258803e-10,1.777379340795551954e-05,4.389666458731878839e-04
4.800960384153661360e-10,1.890021012215507986e-04,8.240787344622432006e-04
5.001000400160063916e-10,3.318926784387204315e-04,1.114354835992568916e-03
5.201040416166466473e-10,4.436172480444853334e-04,1.289545166681001481e-03
5.401080432172869030e-10,5.227097126401007926e-04,1.336378056107343859e-03
5.601120448179271586e-10,5.690711157068320146e-04,1.249358713012790195e-03
5.801160464185674143e-10,5.839083140477192065e-04,1.031075424293109548e-03
6.001200480192076700e-10,5.696114777289227509e-04,6.919985659883936147e-04
6.201240496198479256e-10,5.295787088057587197e-04,2.497896945070801449e-04
6.401280512204881813e-10,4.679987113992615079e-04,-2.718315068105643748e-04
6.601320528211284370e-10,3.896044129244024537e-04,-8.445874223964866534e-04
6.801360544217686926e-10,2.994116309791753998e-04,-1.437412561348398862e-03
7.001400560224089483e-10,2.024572510558642112e-04,-2.018380223627541138e-03
7.201440576230492040e-10,1.035509244444877123e-04,-2.556663793679747609e-03
7.401480592236894596e-10,7.053059436981195442e-06,-3.024409676490966148e-03
7.601520608243297153e-10,-8.331004710857784889e-05,-3.398405606916661201e-03
7.801560624249699710e-10,-1.645855774856225511e-04,-3.661442007485057708e-03
8.001600640256102266e-10,-2.346825879812647786e-04,-3.803284303693240352e-03
8.201640656262504823e-10,-2.924070692890941639e-04,-3.821199303934924487e-03
8.401680672268907380e-10,-3.374444559756033615e-04,-3.720007288617710461e-03
8.601720688275309936e-10,-3.702933624976352078e-04,-3.511661509221062141e-03
8.801760704281712493e-10,-3.921569943245739077e-04,-3.214386472695804874e-03
9.001800720288115050e-10,-4.048008823746452201e-04,-2.851433819394317594e-03
9.201840736294517606e-10,-4.103872006334075245e-04,-2.449538089676929313e-03
9.401880752300919129e-10,-4.112968719980030071e-04,-2.037172773455173027e-03
9.601920768307322720e-10,-4.099509095395410308e-04,-1.642718656529582261e-03
9.801960784313726310e-10,-4.086419861187055250e-04,-1.292660942021798837e-03
1.000200080032012783e-09,-4.093861229963495149e-04,-1.009928714000807260e-03
1.020204081632652936e-09,-4.138027239616303972e-04,-8.124802684733622212e-04
1.040208083233293295e-09,-4.230290734884815267e-04,-7.122213555432431453e-04
1.060212084833933654e-09,-4.376730072764147906e-04,-7.143215465182657219e-04
1.080216086434573806e-09,-4.578049076208386982e-04,-8.169681797110639031e-04
1.100220088035213958e-09,-4.829876355502508165e-04,-1.011569303501939215e-03
1.120224089635854317e-09,-5.123406425574763201e-04,-1.283388510181402657e-03
1.140228091236494676e-09,-5.446324484707233118e-04,-1.612567341621736839e-03
1.160232092837134829e-09,-5.783940471244079784e-04,-1.975466754111601230e-03
1.180236094437774981e-09,-6.120446969854648504e-04,-2.346239458019334662e-03
1.200240096038415340e-09,-6.440210244160452955e-04,-2.698531005647868998e-03
1.220244097639055699e-09,-6.729004305703710628e-04,-3.007200125241464139e-03
1.240248099239695851e-09,-6.975104296796717611e-04,-3.249948408276511456e-03
1.260252100840336004e-09,-7.170167022599049662e-04,-3.408756025412459228e-03
1.280256102440976363e-09,-7.309842362662716904e-04,-3.471033209807189521e-03
1.300260104041616722e-09,-7.394078421650821138e-04,-3.430415934669537106e-03
1.320264105642256874e-09,-7.427104364788088752e-04,-3.287157305980039669e-03
1.340268107242897026e-09,-7.417096554842612802e-04,-3.048092202689483329e-03
1.360272108843537385e-09,-7.375554486998060245e-04,-2.726179962726889977e-03
1.380276110444177744e-09,-7.316431807931051247e-04,-2.339656702862156351e-03
1.400280112044817897e-09,-7.255083265454333056e-04,-1.910853484075353487e-03
1.420284113645458049e-09,-7.207099849588401164e-04,-1.464757449076593094e-03
1.440288115246098408e-09,-7.187111015664022313e-04,-1.027408965971334442e-03
1.460292116846738767e-09,-7.207634395832527435e-04,-6.242377364982008934e-04
1.480296118447378919e-09,-7.278049801744508000e-04,-2.784441766595699809e-04
1.500300120048019072e-09,-7.403765910038721983e-04,-9.528977890662022106e-06
1.520304121648659431e-09,-7.585635406992267873e-04,1.679361393280503578e-04
1.540308123249299790e-09,-7.819658400751489016e-04,2.452191997309735388e-04
1.560312124849939942e-09,-8.096995631155825797e-04,2.199635392294717242e-04
1.580316126450580094e-09,-8.404293583041733996e-04,9.631545904140975775e-05
1.600320128051220453e-09,-8.724304252344308860e-04,-1.153627485135266844e-04
1.620324129651860812e-09,-9.036764211659595964e-04,-3.991748271275735423e-04
1.640328131252500965e-09,-9.319481860526584571e-04,-7.347231241230095652e-04
1.660332132853141117e-09,-9.549569249416475477e-04,-1.098425169852023601e-03
1.680336134453781476e-09,-9.704746342745557619e-04,-1.465030018124662556e-03
1.700340136054421835e-09,-9.764641487691541350e-04,-1.809237765377843567e-03
1.720344137655061987e-09,-9.712012357765219912e-04,-2.107319476645743567e-03
1.740348139255702140e-09,-9.533816636985500016e-04,-2.338635059808011774e-03
1.760352140856342499e-09,-9.222070827296687933e-04,-2.486953396457644572e-03
1.780356142456982858e-09,-8.774448183691952287e-04,-2.541491802936456362e-03
1.800360144057623010e-09,-8.194582096220697160e-04,-2.497609828766642146e-03
1.820364145658263162e-09,-7.492058289956406549e-04,-2.357114351349402261e-03
1.840368147258903521e-09,-6.682096964926063313e-04,-2.128157498169859843e-03
1.860372148859543880e-09,-5.784943391920961036e-04,-1.824734565900259326e-03
1.880376150460183826e-09,-4.825001507091053162e-04,-1.465814195499530806e-03
1.900380152060824185e-09,-3.829758803939525358e-04,-1.074156031752045593e-03
1.920384153661464544e-09,-2.828561558519042483e-04,-6.748905134652232862e-04
1.940388155262104903e-09,-1.851306592620963415e-04,-2.939501052892735727e-04
1.960392156862745262e-09,-9.271190558828696325e-05,4.354970375153590051e-05
1.980396158463385208e-09,-8.308500434039446997e-06,3.148784854425712757e-04
2.000400160064025567e-09,6.568969804960782298e-05,5.011104054166362750e-04
2.020404161664665926e-09,1.273088881860296015e-04,5.883071709287693383e-04
2.040408163265305871e-09,1.750665690624070400e-04,5.683914228452949247e-04
2.060412164865946230e-09,2.080214925008044813e-04,4.396571559983446491e-04
2.080416166466586589e-09,2.257965402555184948e-04,2.068865548584648763e-04
2.100420168067226948e-09,2.285742392968359246e-04,-1.189327583633051290e-04
2.120424169667867307e-09,2.170660868245540280e-04,-5.212711948925743185e-04
2.140428171268507253e-09,1.924581974976017750e-04,-9.790589439032755179e-04
2.160432172869147612e-09,1.563369368207041300e-04,-1.467962725728022555e-03
2.180436174469787971e-09,1.105991090817649858e-04,-1.961857514527555121e-03
2.200440176070427916e-09,5.735188479295160640e-05,-2.434401486085706941e-03
2.220444177671068276e-09,-1.192041155792888146e-06,-2.860616513840535079e-03
2.240448179271708635e-09,-6.281857683513293014e-05,-3.218376714733787568e-03
2.260452180872348994e-09,-1.254104683333199133e-04,-3.489713790812415742e-03
2.280456182472989353e-09,-1.870350376253394225e-04,-3.661859798988728858e-03
2.300460184073629298e-09,-2.460176122566693131e-04,-3.727964736279498585e-03
2.320464185674269657e-09,-3.009977943653884686e-04,-3.687446878006327838e-03
2.340468187274910016e-09,-3.509667765528523770e-04,-3.545956848004845011e-03
2.360472188875549962e-09,-3.952850078421009860e-04,-3.314960481237750646e-03
2.380476190476190321e-09,-4.336805802405373483e-04,-3.010969152567367219e-03
2.400480192076830680e-09,-4.662296863934970782e-04,-2.654467921489382393e-03
2.420484193677471039e-09,-4.933213412479873486e-04,-2.268610242083433492e-03
2.440488195278111398e-09,-5.156092265167770044e-04,-1.877761983988707715e-03
2.460492196878751344e-09,-5.339539799668461574e-04,-1.505986259600049313e-03
2.480496198479391703e-09,-5.493594998599661593e-04,-1.175563543696770026e-03
2.500500200080032062e-09,-5.629068696526524701e-04,-9.056386560667768109e-04
2.520504201680672007e-09,-5.756893434715528455e-04,-7.110775769464399050e-04
2.540508203281312366e-09,-5.887514941087211573e-04,-6.016033544819139080e-04
2.560512204881952725e-09,-6.030351462353132760e-04,-5.812624335428813157e-04
2.580516206482593084e-09,-6.193341380875841493e-04,-6.482517343494835363e-04
2.600520208083233443e-09,-6.382593179138633822e-04,-7.951140699300922928e-04
2.620524209683873389e-09,-6.602145298876691210e-04,-1.009286445448152403e-03
2.640528211284513748e-09,-6.853837181263585298e-04,-1.273963871343541726e-03
2.660532212885154107e-09,-7.137287118530586576e-04,-1.569221906616009680e-03
2.680536214485794052e-09,-7.449967774459845911e-04,-1.873325423616736644e-03
2.700540216086434412e-09,-7.787366535746514636e-04,-2.164140007536122061e-03
2.720544217687074771e-09,-8.143215342335027168e-04,-2.420556631257501055e-03
2.740548219287715130e-09,-8.509773326629815199e-04,-2.623840101826772388e-03
2.760552220888355489e-09,-8.878145399889710802e-04,-2.758817226610232095e-03
2.780556222488995434e-09,-9.238620719067184390e-04,-2.814831313588176537e-03
2.800560224089635793e-09,-9.581016554265883766e-04,-2.786404795968850431e-03
2.820564225690276152e-09,-9.895015226083474918e-04,-2.673570474152992590e-03
2.840568227290916098e-09,-1.017048424898668330e-03,-2.481852902173016084e-03
2.860572228891556457e-09,-1.039777236274167958e-03,-2.221903478026582626e-03
2.880576230492196816e-09,-1.056797654400593338e-03,-1.908814442066382629e-03
2.900580232092837175e-09,-1.067317718892275922e-03,-1.561156893521189939e-03
2.920584233693477534e-09,-1.070664031973192140e-03,-1.199804869930146210e-03
2.940588235294117480e-09,-1.066298682544747529e-03,-8.466204606534285648e-04
2.960592236894757839e-09,-1.053832938787930629e-03,-5.230830653877611026e-04
2.980596238495398198e-09,-1.033037791324952067e-03,-2.489487891831315800e-04
3.000600240096038143e-09,-1.003851407612291191e-03,-4.102344731854251446e-05
3.020604241696678502e-09,-9.663835110642322954e-04,8.787506362997538816e-05
3.040608243297318861e-09,-9.209166398934732004e-04,1.297016640351482896e-04
3.060612244897959220e-09,-8.679041858010732744e-04,8.166914795224312885e-05
3.080616246498599579e-09,-8.079650754475402579e-04,-5.359464567840920588e-05
3.100620248099239525e-09,-7.418749496981895614e-04,-2.682249281957349118e-04
3.120624249699879884e-09,-6.705537250445407381e-04,-5.496197511752384367e-04
3.140628251300520243e-09,-5.950494921263762725e-04,-8.812279927163978524e-04
3.160632252901160188e-09,-5.165188169712036769e-04,-1.243574379929139693e-03
3.180636254501800547e-09,-4.362036558078902768e-04,-1.615456078381486988e-03
3.200640256102440907e-09,-3.554052642600980059e-04,-1.975235290572585622e-03
3.220644257703081266e-09,-2.754556631660355116e-04,-2.302147032736220032e-03
3.240648259303721625e-09,-1.976874007588987970e-04,-2.577541090393938028e-03
3.260652260904361570e-09,-1.234025081657033596e-04,-2.785982052768004157e-03
3.280656262505001929e-09,-5.384166642380046363e-05,-2.916140940736585210e-03
3.300660264105642288e-09,9.845325211028919897e-06,-2.961425625244912437e-03
3.320664265706282234e-09,6.662667834386666902e-05,-2.920314085400316402e-03
3.340668267306922593e-09,1.156122950611589135e-04,-2.796373488579289007e-03
3.360672268907562952e-09,1.560730726753501482e-04,-2.597967878018962295e-03
3.380676270508203311e-09,1.874550921388087627e-04,-2.337676671758668126e-03
3.400680272108843670e-09,2.093881855396458980e-04,-2.031463991171285517e-03
3.420684273709483615e-09,2.216886536115405106e-04,-1.697653940648824814e-03
3.440688275310123975e-09,2.243562004595765281e-04,-1.355778426517585764e-03
3.460692276910764334e-09,2.175654494781332018e-04,-1.025371245477802980e-03
3.480696278511404279e-09,2.016526806572609414e-04,-7.247845831137556503e-04
3.500700280112044638e-09,1.770986649160904665e-04,-4.701016368900229293e-04
3.520704281712684997e-09,1.445086480045544813e-04,-2.742120184812025943e-04
3.540708283313325356e-09,1.045906410639532507e-04,-1.461053921400376975e-04
3.560712284913965715e-09,5.813319848460943870e-05,-9.042422206211140224e-05
3.580716286514605661e-09,5.983803610739621930e-06,-1.072994934880275319e-04
3.600720288115246020e-09,-5.097115709830210361e-05,-1.924749461210220364e-04
3.620724289715886379e-09,-1.118240605243478138e-04,-3.377068947039517767e-04
3.640728291316526324e-09,-1.756608466111801497e-04,-5.314092888266367005e-04
3.660732292917166683e-09,-2.415727409214395822e-04,-7.594983838866923437e-04
3.680736294517807043e-09,-3.086649961111335712e-04,-1.006379212828925878e-03
3.700740296118447402e-09,-3.760630392610552842e-04,-1.256007712872064070e-03
3.720744297719087761e-09,-4.429166624392606852e-04,-1.492958369555512236e-03
3.740748299319727706e-09,-5.084030815457494731e-04,-1.703427806620481759e-03
3.760752300920367652e-09,-5.717297953665871407e-04,-1.876109795288203935e-03
3.780756302521008424e-09,-6.321381906833471211e-04,-2.002886314777196659e-03
3.800760304121648370e-09,-6.889087551805129703e-04,-2.079291940830331649e-03
3.820764305722289142e-09,-7.413685805029144628e-04,-2.104724125078720042e-03
3.840768307322929088e-09,-7.889015738122091750e-04,-2.082388846517047552e-03
3.860772308923569033e-09,-8.309614657288499776e-04,-2.018988561059734902e-03
3.880776310524209806e-09,-8.670873302051842688e-04,-1.924176214168155314e-03
3.900780312124849751e-09,-8.969209470796904405e-04,-1.809814230024530540e-03
3.920784313725490524e-09,-9.202249730532398482e-04,-1.689089880265808984e-03
3.940788315326130470e-09,-9.369005743328722271e-04,-1.575547475438589164e-03
3.960792316926770415e-09,-9.470029449409246179e-04,-1.482102850377584003e-03
3.980796318527411188e-09,-9.507530149752893827e-04,-1.420106330533765912e-03
4.000800320128051133e-09,-9.485436625283388736e-04,-1.398516750211942737e-03
4.020804321728691079e-09,-9.409388925720584690e-04,-1.423241406228413324e-03
4.040808323329331851e-09,-9.286647370538121324e-04,-1.496685594102221614e-03
4.060812324929971797e-09,-9.125910533139004180e-04,-1.617541337917118450e-03
4.080816326530611742e-09,-8.937039328089206331e-04,-1.780829016326047334e-03
4.100820328131252515e-09,-8.730690493721299456e-04,-1.978188849625033604e-03
4.120824329731892460e-09,-8.517869380677865277e-04,-2.198402739265822511e-03
4.140828331332533233e-09,-8.309418583461775261e-04,-2.428111812796218943e-03
4.160832332933173179e-09,-8.115465117065192918e-04,-2.652682204465479660e-03
4.180836334533813124e-09,-7.944854073440829915e-04,-2.857161921359084068e-03
4.200840336134453897e-09,-7.804600553833550931e-04,-3.027265727137828585e-03
4.220844337735093842e-09,-7.699393787679409233e-04,-3.150323194540298379e-03
4.240848339335734615e-09,-7.631187435328565076e-04,-3.216127538731199022e-03
4.260852340936374560e-09,-7.598907966918242102e-04,-3.217629375986949970e-03
4.280856342537014506e-09,-7.598308686108830572e-04,-3.151429722180024845e-03
4.300860344137655278e-09,-7.621990543644902028e-04,-3.018039684259267441e-03
4.320864345738295224e-09,-7.659602626412279850e-04,-2.821889545509487576e-03
4.340868347338935169e-09,-7.698225514060744222e-04,-2.571086306742911658e-03
4.360872348939575942e-09,-7.722930086260256346e-04,-2.276935155065387944e-03
4.380876350540215887e-09,-7.717493448222256369e-04,-1.953255722194672216e-03
4.400880352140855833e-09,-7.665243084431408015e-04,-1.615537365568344916e-03
4.420884353741496606e-09,-7.549990829928540301e-04,-1.279988189628331399e-03
4.440888355342136551e-09,-7.357010416561803046e-04,-9.625394415038626521e-04
4.460892356942777324e-09,-7.074006789217439752e-04,-6.778698162455982362e-04
4.480896358543417269e-09,-6.692022563870865092e-04,-4.385129036492492385e-04
4.500900360144057215e-09,-6.206227238950363977e-04,-2.541055858813765834e-04
4.520904361744697987e-09,-5.616538224278825892e-04,-1.308260038835736493e-04
4.540908363345337933e-09,-4.928029377475311862e-04,-7.105734643949278284e-05
4.560912364945978705e-09,-4.151092299367003624e-04,-7.329898024353845493e-05
4.580916366546618651e-09,-3.301327710610455954e-04,-1.323302878778487854e-04
4.600920368147258596e-09,-2.399158212407447293e-04,-2.396160614341664335e-04
4.620924369747899369e-09,-1.469168884017753773e-04,-3.839264857557648592e-04
4.640928371348539315e-09,-5.391976457163549866e-05,-5.521306658551401909e-04
4.660932372949179260e-09,3.607877794832469918e-05,-7.301112262743523129e-04
4.680936374549820033e-09,1.199976037628301603e-04,-9.037394842744848542e-04
4.700940376150459978e-09,1.948100063225079604e-04,-1.059846603518082436e-03
4.720944377751099924e-09,2.576857297712891446e-04,-1.187126247034066533e-03
4.740948379351740696e-09,3.061288335912012949e-04,-1.276908573026837562e-03
4.760952380952380642e-09,3.381039735523769783e-04,-1.323753687472758621e-03
4.780956382553021414e-09,3.521440522809893606e-04,-1.325824360603213925e-03
4.800960384153661360e-09,3.474329837876591418e-04,-1.285012184640472923e-03
4.820964385754301305e-09,3.238584860363052801e-04,-1.206807476371951713e-03
4.840968387354942078e-09,2.820313082093542758e-04,-1.099920072349538577e-03
4.860972388955582023e-09,2.232690381748731812e-04,-9.756746382167959773e-04
4.880976390556222796e-09,1.495445275093116124e-04,-8.472191476503564264e-04
4.900980392156862742e-09,6.340091139530420648e-05,-7.285977993186162774e-04
4.920984393757502687e-09,-3.216292174727704436e-05,-6.337490019483802252e-04
4.940988395358143460e-09,-1.338308506998973641e-04,-5.754945428723149889e-04
4.960992396958783405e-09,-2.381250410668191088e-04,-5.645872849994989021e-04
4.980996398559423351e-09,-3.415704060100468965e-04,-6.088816029149470531e-04
5.001000400160064123e-09,-4.408593160176633606e-04,-7.126834420221601733e-04
5.021004401760704069e-09,-5.330077106834515965e-04,-8.763258062595433509e-04
5.041008403361344014e-09,-6.154941084787379953e-04,-1.096001333776434319e-03
5.061012404961984787e-09,-6.863738415991744611e-04,-1.363867290345877926e-03
5.081016406562624732e-09,-7.443621235830681897e-04,-1.668420826677545314e-03
5.101020408163265505e-09,-7.888812218991219727e-04,-1.995124818034376812e-03
5.121024409763905450e-09,-8.200689667805861113e-04,-2.327248152787189661e-03
5.141028411364545396e-09,-8.387479730788030118e-04,-2.646870020098885182e-03
5.161032412965186169e-09,-8.463571628592862252e-04,-2.935986496812649418e-03
5.181036414565826114e-09,-8.448493260264604418e-04,-3.177650292788996786e-03
