# Time (s),DUT (V),TEM (V)
0.000000000000000000e+00,-5.430811325540507977e-04,1.839641816295435259e-03
2.000400160064025567e-11,-6.268711859825955171e-04,1.523213196025745590e-03
4.000800320128051133e-11,-6.878767886218772453e-04,1.208858089711603969e-03
6.001200480192076700e-11,-7.246415690291232352e-04,9.154020895433567263e-04
8.001600640256102266e-11,-7.373588650527215359e-04,6.604319651488327683e-04
1.000200080032012783e-10,-7.277947949990459017e-04,4.592362434654044317e-04
1.200240096038415340e-10,-6.991189593431532947e-04,3.238891327191576060e-04
1.400280112044817897e-10,-6.556548905951473062e-04,2.625316449166598272e-04
1.600320128051220453e-10,-6.025669502071306612e-04,2.788917262035663807e-04
1.800360144057623010e-10,-5.455038902736983200e-04,3.720707425717250370e-04
2.000400160064025567e-10,-4.902215571103016789e-04,5.366076621179512130e-04
2.200440176070428123e-10,-4.422080938915996600e-04,7.628156842539685024e-04
2.400480192076830680e-10,-4.063344645330153556e-04,1.037369880686850061e-03
2.600520208083233237e-10,-3.865512201942361689e-04,1.344109593112092658e-03
2.800560224089635793e-10,-3.856492938202721018e-04,1.665006752493371992e-03
3.000600240096038350e-10,-4.050984403771204609e-04,1.981241680600364166e-03
3.200640256102440907e-10,-4.449720040388184007e-04,2.274321860954089426e-03
3.400680272108843463e-10,-5.039612950909870548e-04,2.527176964920320196e-03
3.600720288115246020e-10,-5.794773298307421541e-04,2.725165198201760005e-03
3.800760304121648577e-10,-6.678323617593886520e-04,2.856931664354908813e-03
4.000800320128051133e-10,-7.644888315493453485e-04,2.915068567278134015e-03
4.200840336134453690e-10,-8.643593713711303361e-04,2.896539129744796128e-03
4.400880352140856247e-10,-9.621385492156439611e-04,2.802841354466786145e-03
4.600920368147258803e-10,-1.052645298604144072e-03,2.639903335873613078e-03
4.800960384153661360e-10,-1.131154541557626752e-03,2.417717808527069297e-03
5.001000400160063916e-10,-1.193697391273647237e-03,2.149739037722521624e-03
5.201040416166466473e-10,-1.237311449318435810e-03,1.852079104447309273e-03
5.401080432172869030e-10,-1.260225949039120528e-03,1.542552289241278483e-03
5.601120448179271586e-10,-1.261970635387494634e-03,1.239624938586374571e-03
5.801160464185674143e-10,-1.243402051881846698e-03,9.613334060984320964e-04
6.001200480192076700e-10,-1.206646032044290202e-03,7.242341123409590502e-04
6.201240496198479256e-10,-1.154960351144850624e-03,5.424474011506426980e-04
6.401280512204881813e-10,-1.092526371192862819e-03,4.268508550049680784e-04
6.601320528211284370e-10,-1.024182814412725193e-03,3.844684520940675919e-04
6.801360544217686926e-10,-9.551182718812748981e-04,4.180899806885028593e-04
7.001400560224089483e-10,-8.905414910558530003e-04,5.261412059550264059e-04
7.201440576230492040e-10,-8.353497493841038034e-04,7.028102559078703085e-04
7.401480592236894596e-10,-7.938156440151892829e-04,9.384204621347221227e-04
7.601520608243297153e-10,-7.693114183377667246e-04,1.220025368172107400e-03
7.801560624249699710e-10,-7.640875875224153665e-04,1.532188665574463465e-03
8.001600640256102266e-10,-7.791192689957667341e-04,1.857901195950104143e-03
8.201640656262504823e-10,-8.140294802799204026e-04,2.179579482195624206e-03
8.401680672268907380e-10,-8.670939920210462420e-04,2.480085958183150807e-03
8.601720688275309936e-10,-9.353274042225115945e-04,2.743710381508762414e-03
8.801760704281712493e-10,-1.014645246868572676e-03,2.957054848614386420e-03
9.001800720288115050e-10,-1.100092384606250273e-03,3.109771178458459705e-03
9.201840736294517606e-10,-1.186124097846596049e-03,3.195108779617252155e-03
9.401880752300919129e-10,-1.266923149019656735e-03,3.210242879024407820e-03
9.601920768307322720e-10,-1.336734099334181951e-03,3.156366441038217958e-03
9.801960784313726310e-10,-1.390195231769877048e-03,3.038543420308661026e-03
1.000200080032012783e-09,-1.422648704397046432e-03,2.865335303030725183e-03
1.020204081632652936e-09,-1.430410977428492325e-03,2.648226338142578226e-03
1.040208083233293295e-09,-1.410988031671915263e-03,2.400884641672946379e-03
1.060212084833933654e-09,-1.363223266814248208e-03,2.138305779688401582e-03
1.080216086434573806e-09,-1.287370024503705409e-03,1.875891952188041062e-03
1.100220088035213958e-09,-1.185085173745152381e-03,1.628523145792746575e-03
1.120224089635854317e-09,-1.059344851378162455e-03,1.409676431698902218e-03
1.140228091236494676e-09,-9.142879882373580042e-04,1.230646000622075261e-03
1.160232092837134829e-09,-7.549974020353133336e-04,1.099909796558205723e-03
1.180236094437774981e-09,-5.872317574416919574e-04,1.022679172447316489e-03
1.200240096038415340e-09,-4.171243794101592685e-04,1.000656439771847785e-03
1.220244097639055699e-09,-2.508666072482278100e-04,1.032012240176320358e-03
1.240248099239695851e-09,-9.439400501454471939e-05,1.111581128150412531e-03
1.260252100840336004e-09,4.690672489978019779e-05,1.231260446923044876e-03
1.280256102440976363e-09,1.684538007404204709e-04,1.380585311337873379e-03
1.300260104041616722e-09,2.666755391020698604e-04,1.547442018390520879e-03
1.320264105642256874e-09,3.391540540250663613e-04,1.718874111348684189e-03
1.340268107242897026e-09,3.847007152790935230e-04,1.881930099336751473e-03
1.360272108843537385e-09,4.033607779458572157e-04,2.024499775157894386e-03
1.380276110444177744e-09,3.963488519512660792e-04,2.136087279460469144e-03
1.400280112044817897e-09,3.659209605121568920e-04,2.208473429342133320e-03
1.420284113645458049e-09,3.151925962970829461e-04,2.236227072563005437e-03
1.440288115246098408e-09,2.479152080851713545e-04,2.217034880473854087e-03
1.460292116846738767e-09,1.682257651187100706e-04,2.151830446107712378e-03
1.480296118447378919e-09,8.038532918191405104e-05,2.044716095895357869e-03
1.500300120048019072e-09,-1.147714777816043828e-05,1.902683680192520863e-03
1.520304121648659431e-09,-1.036002917477287834e-04,1.735152991550705046e-03
1.540308123249299790e-09,-1.927911784412092823e-04,1.553357616965407801e-03
1.560312124849939942e-09,-2.765802153003952537e-04,1.369617287562531135e-03
1.580316126450580094e-09,-3.533217658457681780e-04,1.196542592946154724e-03
1.600320128051220453e-09,-4.222358284735993738e-04,1.046221877437890748e-03
1.620324129651860812e-09,-4.833898880134287167e-04,9.294410078282127220e-04
1.640328131252500965e-09,-5.376238519379887820e-04,8.549844620625703193e-04
1.660332132853141117e-09,-5.864245290744648977e-04,8.290609903283535642e-04
1.680336134453781476e-09,-6.317591903914376080e-04,8.548892782925069387e-04
1.700340136054421835e-09,-6.758801838234449778e-04,9.324690884942980502e-04
1.720344137655061987e-09,-7.211142155981785460e-04,1.058551888702201479e-03
1.740348139255702140e-09,-7.696506674791665347e-04,1.226812702442677244e-03
1.760352140856342499e-09,-8.233431570260881308e-04,1.428212588890247865e-03
1.780356142456982858e-09,-8.835374882573753886e-04,1.651529527851645527e-03
1.800360144057623010e-09,-9.509372604004941425e-04,1.884025255029096041e-03
1.820364145658263162e-09,-1.025515830341100195e-03,2.112207378337545814e-03
1.840368147258903521e-09,-1.106480229283225399e-03,2.322640397075160894e-03
1.860372148859543880e-09,-1.192289216167865314e-03,2.502756376624748827e-03
1.880376150460183826e-09,-1.280724127800837199e-03,2.641616162287904312e-03
1.900380152060824185e-09,-1.369007780992478364e-03,2.730575124112525655e-03
1.920384153661464544e-09,-1.453963608366443984e-03,2.763813307044513459e-03
1.940388155262104903e-09,-1.532204657230612499e-03,2.738698147284343489e-03
1.960392156862745262e-09,-1.600340206092169381e-03,2.655958092675140929e-03
1.980396158463385208e-09,-1.655186668406465056e-03,2.519656907059930964e-03
2.000400160064025567e-09,-1.693969220023779391e-03,2.336970447608318745e-03
2.020404161664665926e-09,-1.714501213834948232e-03,2.117779551675134583e-03
2.040408163265305871e-09,-1.715329886783273144e-03,1.874103641418291754e-03
2.060412164865946230e-09,-1.695839024609419304e-03,1.619409092997545251e-03
2.080416166466586589e-09,-1.656301988137605808e-03,1.367833762151995317e-03
2.100420168067226948e-09,-1.597881646176242936e-03,1.133373878705804319e-03
2.120424169667867307e-09,-1.522577104816912746e-03,9.290815436075512300e-04
2.140428171268507253e-09,-1.433120460312379109e-03,7.663201788014666017e-04
2.160432172869147612e-09,-1.332829923843187282e-03,6.541215638756205878e-04
2.180436174469787971e-09,-1.225428377178020781e-03,5.986817858636378324e-04
2.200440176070427916e-09,-1.114838551094446493e-03,6.030249263469060483e-04
2.220444177671068276e-09,-1.004967443052473021e-03,6.668531393652971009e-04
2.240448179271708635e-09,-8.994932214745921537e-04,7.865905578319995484e-04
2.260452180872348994e-09,-8.016676654686121211e-04,9.556168870270464934e-04
2.280456182472989353e-09,-7.141461771504901621e-04,1.164675300177568130e-03
2.300460184073629298e-09,-6.388556456263631573e-04,1.402429016620904481e-03
2.320464185674269657e-09,-5.769080500175633331e-04,1.656132325199065856e-03
2.340468187274910016e-09,-5.285648153451481986e-04,1.912375319832818011e-03
2.360472188875549962e-09,-4.932537605448397006e-04,2.157857614232723716e-03
2.380476190476190321e-09,-4.696372011291665609e-04,2.380145018483062914e-03
2.400480192076830680e-09,-4.557265942671265497e-04,2.568364646205506703e-03
2.420484193677471039e-09,-4.490362382930662569e-04,2.713798063961039495e-03
2.440488195278111398e-09,-4.467661394661359849e-04,2.810338621783854338e-03
2.460492196878751344e-09,-4.460023834561037057e-04,2.854787600844540044e-03
2.480496198479391703e-09,-4.439223055294093043e-04,2.846973751282288589e-03
2.500500200080032062e-09,-4.379915039672377212e-04,2.789691557781411729e-03
2.520504201680672007e-09,-4.261402986529843782e-04,2.688464505293285296e-03
2.540508203281312366e-09,-4.069085638004173644e-04,2.551150060603584943e-03
2.560512204881952725e-09,-3.795498757376216011e-04,2.387412410931324773e-03
2.580516206482593084e-09,-3.440884867230484105e-04,2.208096655299406855e-03
2.600520208083233443e-09,-3.013256030746318649e-04,2.024543681004188113e-03
2.620524209683873389e-09,-2.527946255417650129e-04,1.847888061398630542e-03
2.640528211284513748e-09,-2.006682044094652221e-04,1.688381817922881634e-03
2.660532212885154107e-09,-1.476229735391211757e-04,1.554784793377882732e-03
2.680536214485794052e-09,-9.667047052527069076e-05,1.453857837311311454e-03
2.700540216086434412e-09,-5.096486174738858481e-05,1.389988307895283258e-03
2.720544217687074771e-09,-1.359954187070864262e-05,1.364968975536012038e-03
2.740548219287715130e-09,1.259462111468300990e-05,1.377941800192054259e-03
2.760552220888355489e-09,2.523671401383480607e-05,1.425507843331359509e-03
2.780556222488995434e-09,2.255707282408960093e-05,1.501994393957652944e-03
2.800560224089635793e-09,3.522240686351197985e-06,1.599860856065934110e-03
2.820564225690276152e-09,-3.208437902740516473e-05,1.710216637028203488e-03
2.840568227290916098e-09,-8.363141651007718696e-05,1.823417687847483318e-03
2.860572228891556457e-09,-1.496601676765975419e-04,1.929703862852176054e-03
2.880576230492196816e-09,-2.279559689608164313e-04,2.019837142383403700e-03
2.900580232092837175e-09,-3.156661906797191214e-04,2.085701105367970560e-03
2.920584233693477534e-09,-4.094578469524294204e-04,2.120824805891428563e-03
2.940588235294117480e-09,-5.057053685703317633e-04,2.120799207945872795e-03
2.960592236894757839e-09,-6.006972095996616001e-04,2.083561239687249482e-03
2.980596238495398198e-09,-6.908487731307925506e-04,2.009528903364822192e-03
3.000600240096038143e-09,-7.729087185221843442e-04,1.901580194204607627e-03
3.020604241696678502e-09,-8.441460772861861771e-04,1.764878262396828330e-03
3.040608243297318861e-09,-9.025067350748171725e-04,1.606554701009356521e-03
3.060612244897959220e-09,-9.467296642564465006e-04,1.435271482316610378e-03
3.080616246498599579e-09,-9.764157043993958087e-04,1.260689373109336563e-03
3.100620248099239525e-09,-9.920445403582545379e-04,1.092876199178095678e-03
3.120624249699879884e-09,-9.949386469937449365e-04,9.416917752290927595e-04
3.140628251300520243e-09,-9.871761673934773169e-04,8.161874746339075996e-04
3.160632252901160188e-09,-9.714577749154733755e-04,7.240572308839457070e-04
3.180636254501800547e-09,-9.509353527861995337e-04,6.711733304118065908e-04
3.200640256102440907e-09,-9.290126410753659714e-04,6.612349026282690221e-04
3.220644257703081266e-09,-9.091297107695452736e-04,6.955498877623928454e-04
3.240648259303721625e-09,-8.945441261716954254e-04,7.729629162788770758e-04
3.260652260904361570e-09,-8.881218904498549812e-04,8.899324866415142662e-04
3.280656262505001929e-09,-8.921507214527833393e-04,1.040751641379327385e-03
3.300660264105642288e-09,-9.081869092777833385e-04,1.217897579618201429e-03
3.320664265706282234e-09,-9.369450414950936112e-04,1.412487842118295266e-03
3.340668267306922593e-09,-9.782373641599056459e-04,1.614814334374291283e-03
3.360672268907562952e-09,-1.030966627123846256e-03,1.814921895314351025e-03
3.380676270508203311e-09,-1.093173114527394747e-03,2.003195640583434103e-03
3.400680272108843670e-09,-1.162133372576605508e-03,2.170921047937700819e-03
3.420684273709483615e-09,-1.234505105488557016e-03,2.310782708614839923e-03
3.440688275310123975e-09,-1.306509996145801232e-03,2.417271707344292430e-03
3.460692276910764334e-09,-1.374143979842600482e-03,2.486977452749679785e-03
3.480696278511404279e-09,-1.433402887481031009e-03,2.518747087158040333e-03
3.500700280112044638e-09,-1.480510471705715489e-03,2.513703901712426459e-03
3.520704281712684997e-09,-1.512135686534250845e-03,2.475124952833386398e-03
3.540708283313325356e-09,-1.525586713813822503e-03,2.408186777324057646e-03
3.560712284913965715e-09,-1.518970578983094019e-03,2.319596201142279639e-03
3.580716286514605661e-09,-1.491309192306340464e-03,2.217130236681046605e-03
3.600720288115246020e-09,-1.442605170726260185e-03,2.109114541171317869e-03
3.620724289715886379e-09,-1.373853690365832393e-03,2.003873536203455534e-03
3.640728291316526324e-09,-1.286999719975118629e-03,1.909186852337363665e-03
3.660732292917166683e-09,-1.184843109791039635e-03,1.831786178004634431e-03
3.680736294517807043e-09,-1.070896976681847378e-03,1.776923905242884690e-03
3.700740296118447402e-09,-9.492074638843177661e-04,1.748040351662773738e-03
3.720744297719087761e-09,-8.241451113560156402e-04,1.746550090974300067e-03
3.740748299319727706e-09,-7.001796291255749788e-04,1.771760434556332586e-03
3.760752300920367652e-09,-5.816507354041957267e-04,1.820926839280453350e-03
3.780756302521008424e-09,-4.725478587015804100e-04,1.889441482809402217e-03
3.800760304121648370e-09,-3.763109068156151454e-04,1.971142971543842284e-03
3.820764305722289142e-09,-2.956630160597667348e-04,2.058727634810919322e-03
3.840768307322929088e-09,-2.324842920595010737e-04,2.144236569361252041e-03
3.860772308923569033e-09,-1.877331542631374337e-04,2.219587911757299730e-03
3.880776310524209806e-09,-1.614191430201718442e-04,2.277121014370426296e-03
3.900780312124849751e-09,-1.526281027544562597e-04,2.310118448947991957e-03
3.920784313725490524e-09,-1.595976888359931930e-04,2.313273099981741875e-03
3.940788315326130470e-09,-1.798383299272586445e-04,2.283070950925561275e-03
3.960792316926770415e-09,-2.102922718616670472e-04,2.218065300739701772e-03
3.980796318527411188e-09,-2.475212736419299744e-04,2.119024759168978717e-03
4.000800320128051133e-09,-2.879120332769031826e-04,1.988945051080900136e-03
4.020804321728691079e-09,-3.278875692859450040e-04,1.832922944208028671e-03
4.040808323329331851e-09,-3.641126130819480962e-04,1.657898997217209730e-03
4.060812324929971797e-09,-3.936815784745804122e-04,1.472283798649087847e-03
4.080816326530611742e-09,-4.142788282065140780e-04,1.285489451156650569e-03
4.100820328131252515e-09,-4.243026781883378357e-04,1.107393824532704619e-03
4.120824329731892460e-09,-4.229467607486380202e-04,9.477692112329572311e-04
4.140828331332533233e-09,-4.102348766638708806e-04,8.157092268792794348e-04
4.160832332933173179e-09,-3.870081530242609519e-04,7.190879784792951826e-04
4.180836334533813124e-09,-3.548660332449340548e-04,6.640836702771604804e-04
4.200840336134453897e-09,-3.160652011858857443e-04,6.547950488410969735e-04
4.220844337735093842e-09,-2.733828381841339359e-04,6.929736371292221503e-04
4.240848339335734615e-09,-2.299525032257844308e-04,7.778879035266484656e-04
4.260852340936374560e-09,-1.890823115509869166e-04,9.063277670806140461e-04
4.280856342537014506e-09,-1.540658958246433300e-04,1.072749619274614456e-03
4.300860344137655278e-09,-1.279968313392190759e-04,1.269553836371213260e-03
4.320864345738295224e-09,-1.135967932664400993e-04,1.487479051494563272e-03
4.340868347338935169e-09,-1.130667257560995367e-04,1.716090706149655219e-03
4.360872348939575942e-09,-1.279688082287423203e-04,1.944336000796102618e-03
4.380876350540215887e-09,-1.591450999600190711e-04,2.161133624371995056e-03
4.400880352140855833e-09,-2.066765481731064466e-04,2.355964773224007713e-03
4.420884353741496606e-09,-2.698836899109431577e-04,2.519432067879487456e-03
4.440888355342136551e-09,-3.473680028995906411e-04,2.643755020949239976e-03
4.460892356942777324e-09,-4.370906025225604948e-04,2.723174565163465587e-03
4.480896358543417269e-09,-5.364829681615042182e-04,2.754244574774087143e-03
4.500900360144057215e-09,-6.425827227284225136e-04,2.735994973052589298e-03
4.520904361744697987e-09,-7.521862713047199663e-04,2.669958509971503448e-03
4.540908363345337933e-09,-8.620093877937170124e-04,2.560061168580053757e-03
4.560912364945978705e-09,-9.688466512073422689e-04,2.412383949138370044e-03
4.580916366546618651e-09,-1.069720972911813528e-03,2.234811029753297658e-03
4.600920368147258596e-09,-1.162015289450890089e-03,2.036585591192878984e-03
4.620924369747899369e-09,-1.243579761055239310e-03,1.827799563683304420e-03
4.640928371348539315e-09,-1.312809428510327333e-03,1.618846929279712816e-03
4.660932372949179260e-09,-1.368689137411260295e-03,1.419871817374738273e-03
4.680936374549820033e-09,-1.410804524052441510e-03,1.240242393114121674e-03
4.700940376150459978e-09,-1.439319851757514448e-03,1.088079499392141615e-03
4.720944377751099924e-09,-1.454925373385715067e-03,9.698653198002834619e-04
4.740948379351740696e-09,-1.458758567485895835e-03,8.901522259737730709e-04
4.760952380952380642e-09,-1.452304960053318276e-03,8.513857824215736786e-04
4.780956382553021414e-09,-1.437285229584520834e-03,8.538489894380841324e-04
4.800960384153661360e-09,-1.415535852901379397e-03,8.957276705930965937e-04
4.820964385754301305e-09,-1.388890662255930046e-03,9.732898865211809126e-04
4.840968387354942078e-09,-1.359070356764520253e-03,1.081165796560405777e-03
4.860972388955582023e-09,-1.327586275424826566e-03,1.212708869033840824e-03
4.880976390556222796e-09,-1.295663650372595906e-03,1.360415071926813265e-03
4.900980392156862742e-09,-1.264188192622195395e-03,1.516373890223701075e-03
4.920984393757502687e-09,-1.233678307782503248e-03,1.672723852752765411e-03
4.940988395358143460e-09,-1.204283594414168497e-03,1.822085748252812772e-03
4.960992396958783405e-09,-1.175808643772765106e-03,1.957948804599797098e-03
4.980996398559423351e-09,-1.147759634267843257e-03,2.074988638018156802e-03
5.001000400160064123e-09,-1.119409885560227608e-03,2.169300507298076684e-03
5.021004401760704069e-09,-1.089879480179409667e-03,2.238537019669551657e-03
5.041008403361344014e-09,-1.058223331026830576e-03,2.281945569743199734e-03
5.061012404961984787e-09,-1.023521706220982845e-03,2.300307064871115123e-03
5.081016406562624732e-09,-9.849672309044273100e-04,2.295783511865340069e-03
5.101020408163265505e-09,-9.419427585735132237e-04,2.271687445902821276e-03
5.121024409763905450e-09,-8.940852103590610916e-04,2.232190651649714440e-03
5.141028411364545396e-09,-8.413314685426324935e-04,2.181992901580801121e-03
5.161032412965186169e-09,-7.839436139507353560e-04,2.125973337939945310e-03
5.181036414565826114e-09,-7.225121380608517290e-04,2.068847561820160233e-03
5.201040416166466887e-09,-6.579371557502789250e-04,2.014852467036186770e-03
5.221044417767106832e-09,-5.913890085911835360e-04,1.967478460515072192e-03
5.241048419367746778e-09,-5.242509003954246450e-04,1.929265121540520590e-03
