# Time (s),DUT (V),TEM (V)
0.000000000000000000e+00,-2.708372945602770037e-04,2.513254706654698654e-03
2.000400160064025567e-11,-2.950796085321653710e-04,2.116684615841439663e-03
4.000800320128051133e-11,-3.321066313609159488e-04,1.748450885148826982e-03
6.001200480192076700e-11,-3.805413146506890498e-04,1.420540577216970702e-03
8.001600640256102266e-11,-4.383279391208220349e-04,1.142677465071229503e-03
1.000200080032012783e-10,-5.028604078019940438e-04,9.219758716551915015e-04
1.200240096038415340e-10,-5.711439573135938244e-04,7.627276575733275398e-04
1.400280112044817897e-10,-6.399802259588347137e-04,6.663301366882061353e-04
1.600320128051220453e-10,-7.061641677638818984e-04,6.313554341935518829e-04
1.800360144057623010e-10,-7.666805583815612017e-04,6.537545704357177476e-04
2.000400160064025567e-10,-8.188878500269043551e-04,7.271827399462038556e-04
2.200440176070428123e-10,-8.606779001562946769e-04,8.434262198148784152e-04
2.400480192076830680e-10,-8.906015778001596939e-04,9.929064029088714109e-04
2.600520208083233237e-10,-9.079523537402276042e-04,1.165232867556617244e-03
2.800560224089635793e-10,-9.128025788581857697e-04,1.349775349798683832e-03
3.000600240096038350e-10,-9.059900907466537532e-04,1.536224076273772767e-03
3.200640256102440907e-10,-8.890558824298451556e-04,1.715109154444201603e-03
3.400680272108843463e-10,-8.641366286823573073e-04,1.878252520998952490e-03
3.600720288115246020e-10,-8.338187060010246281e-04,2.019130152005606076e-03
3.800760304121648577e-10,-8.009627855604074202e-04,2.133127596511124203e-03
4.000800320128051133e-10,-7.685099718523990230e-04,2.217678103015630585e-03
4.200840336134453690e-10,-7.392816836161065922e-04,2.272279314381455209e-03
4.400880352140856247e-10,-7.157859490725633012e-04,2.298391334501778595e-03
4.600920368147258803e-10,-7.000424809008930042e-04,2.299225538234941652e-03
4.800960384153661360e-10,-6.934378221366642838e-04,2.279439440521001479e-03
5.001000400160063916e-10,-6.966200736860562884e-04,2.244757934504459061e-03
5.201040416166466473e-10,-7.094403324735565905e-04,2.201544980895446622e-03
5.401080432172869030e-10,-7.309451287967780276e-04,2.156352181557691025e-03
5.601120448179271586e-10,-7.594210235226282139e-04,2.115471481133215145e-03
5.801160464185674143e-10,-7.924893001310348876e-04,2.084518481342115953e-03
6.001200480192076700e-10,-8.272455601446493043e-04,2.068070582907182136e-03
6.201240496198479256e-10,-8.604361951001851527e-04,2.069380535036359839e-03
6.401280512204881813e-10,-8.886613392048149608e-04,2.090181194246293513e-03
6.601320528211284370e-10,-9.085921520759310081e-04,2.130591659135402331e-03
6.801360544217686926e-10,-9.171892518658038241e-04,2.189128788802249467e-03
7.001400560224089483e-10,-9.119088835455181185e-04,2.262821791033878087e-03
7.201440576230492040e-10,-8.908839852954414558e-04,2.347421450110485051e-03
7.401480592236894596e-10,-8.530686787138664793e-04,2.437690006650266878e-03
7.601520608243297153e-10,-7.983367790972129268e-04,2.527753022184617629e-03
7.801560624249699710e-10,-7.275275802753212312e-04,2.611491024940171529e-03
8.001600640256102266e-10,-6.424352581088684910e-04,2.682946538307480044e-03
8.201640656262504823e-10,-5.457415745574643005e-04,2.736721358130512777e-03
8.401680672268907380e-10,-4.408949510188571951e-04,2.768339701940398905e-03
8.601720688275309936e-10,-3.319422122136887342e-04,2.774555048039611081e-03
8.801760704281712493e-10,-2.233221852527709692e-04,2.753581976752486789e-03
9.001800720288115050e-10,-1.196326976760592138e-04,2.705238906862956691e-03
9.201840736294517606e-10,-2.538420880233332986e-05,2.630993011575602763e-03
9.401880752300919129e-10,5.524577430936629640e-05,2.533904478621927699e-03
9.601920768307322720e-10,1.186432607381027350e-04,2.418473299810741748e-03
9.801960784313726310e-10,1.619598418954091125e-04,2.290397581398333996e-03
1.000200080032012783e-09,1.832743420587371638e-04,2.156257617532150381e-03
1.020204081632652936e-09,1.817044075631279749e-04,2.023144358384465491e-03
1.040208083233293295e-09,1.574612423931144665e-04,1.898254178204075672e-03
1.060212084833933654e-09,1.118439657549962304e-04,1.788473818886332934e-03
1.080216086434573806e-09,4.717355754155596378e-05,1.699979941744230675e-03
1.100220088035213958e-09,-3.333013529247304008e-05,1.637876837451039637e-03
1.120224089635854317e-09,-1.257215418057175307e-04,1.605893579814832378e-03
1.140228091236494676e-09,-2.255429402558916090e-04,1.606158402223284952e-03
1.160232092837134829e-09,-3.280663731402815443e-04,1.639063537678509420e-03
1.180236094437774981e-09,-4.285501486102248018e-04,1.703228465287511635e-03
1.200240096038415340e-09,-5.224953067474479625e-04,1.795563762170409488e-03
1.220244097639055699e-09,-6.058874164874002806e-04,1.911431908895527745e-03
1.240248099239695851e-09,-6.754099112293082338e-04,2.044895782196781871e-03
1.260252100840336004e-09,-7.286168193857793518e-04,2.189040518628496655e-03
1.280256102440976363e-09,-7.640551035735776951e-04,2.336350239805822394e-03
1.300260104041616722e-09,-7.813297501396542638e-04,2.479118034831463008e-03
1.320264105642256874e-09,-7.811080768493034810e-04,2.609865773402694593e-03
1.340268107242897026e-09,-7.650632549892438751e-04,2.721749873081684510e-03
1.360272108843537385e-09,-7.357605652252310023e-04,2.808930084213040034e-03
1.380276110444177744e-09,-6.964932172353823121e-04,2.866880622087890351e-03
1.400280112044817897e-09,-6.510774672194677730e-04,2.892626426736738098e-03
1.420284113645458049e-09,-6.036190950510800799e-04,2.884891756018615437e-03
1.440288115246098408e-09,-5.582649187148639976e-04,2.844153451430843100e-03
1.460292116846738767e-09,-5.189538347786837357e-04,2.772596752476575409e-03
1.480296118447378919e-09,-4.891818348421588273e-04,2.673977147244066890e-03
1.500300120048019072e-09,-4.717945644161376773e-04,2.553397104883232092e-03
1.520304121648659431e-09,-4.688193176914142845e-04,2.417011328281903557e-03
1.540308123249299790e-09,-4.813460008167325414e-04,2.271678116700275377e-03
1.560312124849939942e-09,-5.094636895913201742e-04,2.124577314619366473e-03
1.580316126450580094e-09,-5.522561285642741281e-04,1.982816985627548420e-03
1.600320128051220453e-09,-6.078560623617849414e-04,1.853051303576675607e-03
1.620324129651860812e-09,-6.735548611504364779e-04,1.741131190470689497e-03
1.640328131252500965e-09,-7.459607023724951734e-04,1.651807022565004697e-03
1.660332132853141117e-09,-8.211957874974019651e-04,1.588499417023177436e-03
1.680336134453781476e-09,-8.951208670399505869e-04,1.553149909151508830e-03
1.700340136054421835e-09,-9.635738458003933853e-04,1.546158493602185768e-03
1.720344137655061987e-09,-1.022608526925655823e-03,1.566409825918701430e-03
1.740348139255702140e-09,-1.068719664394048117e-03,1.611384674451021067e-03
1.760352140856342499e-09,-1.099041416086335562e-03,1.677348286440132411e-03
1.780356142456982858e-09,-1.111507962757046254e-03,1.759602975267944829e-03
1.800360144057623010e-09,-1.104967376770115643e-03,1.852788700504270220e-03
1.820364145658263162e-09,-1.079242645570122321e-03,1.951212898412389533e-03
1.840368147258903521e-09,-1.035136906826016273e-03,2.049189464368941175e-03
1.860372148859543880e-09,-9.743832449341713591e-04,2.141366655424334613e-03
1.880376150460183826e-09,-8.995426351724773598e-04,2.223024761796572532e-03
1.900380152060824185e-09,-8.138566103365628196e-04,2.290326608180784460e-03
1.920384153661464544e-09,-7.210637897395734104e-04,2.340507139713542736e-03
1.940388155262104903e-09,-6.251914035116024797e-04,2.371992315953766039e-03
1.960392156862745262e-09,-5.303342533336606168e-04,2.384442027543249003e-03
1.980396158463385208e-09,-4.404341033885919771e-04,2.378716483758061290e-03
2.000400160064025567e-09,-3.590722678044553631e-04,2.356770203039945753e-03
2.020404161664665926e-09,-2.892871758055894299e-04,2.321482087406664084e-03
2.040408163265305871e-09,-2.334270212244906164e-04,2.276433813858262916e-03
2.060412164865946230e-09,-1.930453479696274291e-04,2.225651709624829316e-03
2.080416166466586589e-09,-1.688447305010486470e-04,2.173329224269619254e-03
2.100420168067226948e-09,-1.606707463872032553e-04,2.123547963877201079e-03
2.120424169667867307e-09,-1.675553892683049858e-04,2.080014973048838374e-03
2.140428171268507253e-09,-1.878061210751548363e-04,2.045832571714214631e-03
2.160432172869147612e-09,-2.191340902017258963e-04,2.023314676009032621e-03
2.180436174469787971e-09,-2.588128067752298758e-04,2.013860316660896852e-03
2.200440176070427916e-09,-3.038568981254029591e-04,2.017891225822208978e-03
2.220444177671068276e-09,-3.512095618197290359e-04,2.034856142271272705e-03
2.240448179271708635e-09,-3.979270433724326666e-04,2.063300154696373016e-03
2.260452180872348994e-09,-4.413488995864134888e-04,2.100993236954745540e-03
2.280456182472989353e-09,-4.792439303876689987e-04,2.145108388553778733e-03
2.300460184073629298e-09,-5.099233937953780507e-04,2.192436710013018729e-03
2.320464185674269657e-09,-5.323153452282549476e-04,2.239624504969132436e-03
2.340468187274910016e-09,-5.459965190294920013e-04,2.283416243006627759e-03
2.360472188875549962e-09,-5.511809318853737360e-04,2.320887010744496215e-03
2.380476190476190321e-09,-5.486671597154631555e-04,2.349648928510024264e-03
2.400480192076830680e-09,-5.397488475657140610e-04,2.368017854234133121e-03
2.420484193677471039e-09,-5.260952937280801312e-04,2.375129410927032982e-03
2.440488195278111398e-09,-5.096107641933213294e-04,2.370996780935299714e-03
2.460492196878751344e-09,-4.922824314460583781e-04,2.356506588071431360e-03
2.480496198479391703e-09,-4.760274194182917244e-04,2.333353287870669826e-03
2.500500200080032062e-09,-4.625493424188028722e-04,2.303916543988925557e-03
2.520504201680672007e-09,-4.532139614959175512e-04,2.271089826072802183e-03
2.540508203281312366e-09,-4.489522006287260556e-04,2.238071682155798759e-03
2.560512204881952725e-09,-4.501968596853852004e-04,2.208133612461075489e-03
2.580516206482593084e-09,-4.568570562351856909e-04,2.184380044688663015e-03
2.600520208083233443e-09,-4.683318737680862583e-04,2.169516483994491426e-03
2.620524209683873389e-09,-4.835620546019845441e-04,2.165641447893856819e-03
2.640528211284513748e-09,-5.011160215008190469e-04,2.174076326742329854e-03
2.660532212885154107e-09,-5.193042066754218400e-04,2.195244927330078453e-03
2.680536214485794052e-09,-5.363137581273413543e-04,2.228611311164753819e-03
2.700540216086434412e-09,-5.503543035414356624e-04,2.272680829010716424e-03
2.720544217687074771e-09,-5.598046703845214501e-04,2.325065213569657910e-03
2.740548219287715130e-09,-5.633503381267200962e-04,2.382608478056933918e-03
2.760552220888355489e-09,-5.601019433713813611e-04,2.441566439916382017e-03
2.780556222488995434e-09,-5.496863376184388163e-04,2.497829194638425190e-03
2.800560224089635793e-09,-5.323034366192468635e-04,2.547173026190353070e-03
2.820564225690276152e-09,-5.087442904145927577e-04,2.585526238638879374e-03
2.840568227290916098e-09,-4.803683060118813680e-04,2.609232356642693634e-03
2.860572228891556457e-09,-4.490402119471286271e-04,2.615294138876103104e-03
2.880576230492196816e-09,-4.170299971529254648e-04,2.601582881838632351e-03
2.900580232092837175e-09,-3.868815173889109549e-04,2.566999500839906370e-03
2.920584233693477534e-09,-3.612575836129860909e-04,2.511576738134137319e-03
2.940588235294117480e-09,-3.427709914347592678e-04,2.436515389678169715e-03
2.960592236894757839e-09,-3.338120118813024824e-04,2.344151443722768645e-03
2.980596238495398198e-09,-3.363832699213463364e-04,2.237855239346266296e-03
3.000600240096038143e-09,-3.519526580142830837e-04,2.121867920391302606e-03
3.020604241696678502e-09,-3.813339795640088761e-04,2.001084321921223815e-03
3.040608243297318861e-09,-4.246034458580460265e-04,1.880794742731958704e-03
3.060612244897959220e-09,-4.810580530329386373e-04,1.766400622593807240e-03
3.080616246498599579e-09,-5.492193692416359524e-04,1.663120797013117750e-03
3.100620248099239525e-09,-6.268835184465205860e-04,1.575705641890981935e-03
3.120624249699879884e-09,-7.112153242729121923e-04,1.508176004679445594e-03
3.140628251300520243e-09,-7.988818491502620248e-04,1.463602371884599766e-03
3.160632252901160188e-09,-8.862180996922539413e-04,1.443937333141762612e-03
3.180636254501800547e-09,-9.694156227398325210e-04,1.449911215956108373e-03
3.200640256102440907e-09,-1.044723216645346633e-03,1.480996978112575357e-03
3.220644257703081266e-09,-1.108648125212022013e-03,1.535446289319316975e-03
3.240648259303721625e-09,-1.158145924246160039e-03,1.610394465115670606e-03
3.260652260904361570e-09,-1.190787867314019007e-03,1.702027796507415633e-03
3.280656262505001929e-09,-1.204895698709906220e-03,1.805803100838246095e-03
3.300660264105642288e-09,-1.199635796453256756e-03,1.916706230631640964e-03
3.320664265706282234e-09,-1.175066867096332020e-03,2.029534005954812537e-03
3.340668267306922593e-09,-1.132138136680569404e-03,2.139182719876323371e-03
3.360672268907562952e-09,-1.072637904933919665e-03,2.240926084132687218e-03
3.380676270508203311e-09,-9.990952764307051235e-04,2.330666247435217615e-03
3.400680272108843670e-09,-9.146406744107099876e-04,2.405143281296609481e-03
3.420684273709483615e-09,-8.228332104306344255e-04,2.462091175544691216e-03
3.440688275310123975e-09,-7.274649752260500205e-04,2.500331750937552760e-03
3.460692276910764334e-09,-6.323537106465064797e-04,2.519801768482255160e-03
3.480696278511404279e-09,-5.411360327135188554e-04,2.521512652241657878e-03
3.500700280112044638e-09,-4.570733564152962085e-04,2.507446386822678903e-03
3.520704281712684997e-09,-3.828819225983458741e-04,2.480395044885287583e-03
3.540708283313325356e-09,-3.205968893780835271e-04,2.443754802743027671e-03
3.560712284913965715e-09,-2.714784098300072977e-04,2.401288003663507552e-03
3.580716286514605661e-09,-2.359650960783511481e-04,2.356868663480055429e-03
3.600720288115246020e-09,-2.136774184860098234e-04,2.314227670959945454e-03
3.620724289715886379e-09,-2.034705790542805739e-04,2.276713766972554998e-03
3.640728291316526324e-09,-2.035334119568028898e-04,2.247085207340175205e-03
3.660732292917166683e-09,-2.115270819669493507e-04,2.227344903309098553e-03
3.680736294517807043e-09,-2.247549420624683953e-04,2.218628928273285762e-03
3.700740296118447402e-09,-2.403530211886502344e-04,2.221154766889833678e-03
3.720744297719087761e-09,-2.554893574081087168e-04,2.234231788124256546e-03
3.740748299319727706e-09,-2.675598476816929100e-04,2.256332395827253135e-03
3.760752300920367652e-09,-2.743684876267437657e-04,2.285218405918057732e-03
3.780756302521008424e-09,-2.742808120443274611e-04,2.318113666627596124e-03
3.800760304121648370e-09,-2.663409645679333396e-04,2.351911002060523559e-03
3.820764305722289142e-09,-2.503450260151705029e-04,2.383399405899874930e-03
3.840768307322929088e-09,-2.268658840227837721e-04,2.409496177719157653e-03
3.860772308923569033e-09,-1.972278718831949149e-04,2.427468456695286523e-03
3.880776310524209806e-09,-1.634324648117375239e-04,2.435129380463190319e-03
3.900780312124849751e-09,-1.280393125471766553e-04,2.430995829692991859e-03
3.920784313725490524e-09,-9.400962750986764974e-05,2.414397299454114701e-03
3.940788315326130470e-09,-6.452127181146930239e-05,2.385528699806643230e-03
3.960792316926770415e-09,-4.276665317127436124e-05,2.345443619588610459e-03
3.980796318527411188e-09,-3.174564157594343580e-05,2.295988547640483417e-03
4.000800320128051133e-09,-3.406608756425612755e-05,2.239682477968886910e-03
4.020804321728691079e-09,-5.176413560909234982e-05,2.179549973848944871e-03
4.040808323329331851e-09,-8.615540399647164302e-05,2.118918892202470775e-03
4.060812324929971797e-09,-1.377263118910239284e-04,2.061196368052959152e-03
4.080816326530611742e-09,-2.060724812430867370e-04,2.009638169737258326e-03
4.100820328131252515e-09,-2.898883660633276267e-04,1.967127055607084413e-03
4.120824329731892460e-09,-3.870092300874841207e-04,1.935975252345778757e-03
4.140828331332533233e-09,-4.945034872303708277e-04,1.917764660274926935e-03
4.160832332933173179e-09,-6.088104233748410383e-04,1.913235963747941804e-03
4.180836334533813124e-09,-7.259156123071063222e-04,1.922234636237974510e-03
4.200840336134453897e-09,-8.415540850220246854e-04,1.943718081804901706e-03
4.220844337735093842e-09,-9.514296451488210311e-04,1.975824087005110738e-03
4.240848339335734615e-09,-1.051437743692917696e-03,2.015996632657683987e-03
4.260852340936374560e-09,-1.137879092306265773e-03,2.061161202199971766e-03
4.280856342537014506e-09,-1.207651719883303700e-03,2.107938280843296274e-03
4.300860344137655278e-09,-1.258410430953419172e-03,2.152880998122858047e-03
4.320864345738295224e-09,-1.288684531068608804e-03,2.192721014009648382e-03
4.340868347338935169e-09,-1.297947130112576345e-03,2.224605918836093307e-03
4.360872348939575942e-09,-1.286632172991057470e-03,2.246311679097293991e-03
4.380876350540215887e-09,-1.256098408976139393e-03,2.256415014664689932e-03
4.400880352140855833e-09,-1.208542613410072252e-03,2.254412967881266362e-03
4.420884353741496606e-09,-1.146867333710812438e-03,2.240780184609022022e-03
4.440888355342136551e-09,-1.074511069784921330e-03,2.216958376009426929e-03
4.460892356942777324e-09,-9.952509606424599347e-04,2.185276824907454295e-03
4.480896358543417269e-09,-9.129896066540686781e-04,2.148807366805602359e-03
4.500900360144057215e-09,-8.315385193576417923e-04,2.111161722225675819e-03
4.520904361744697987e-09,-7.544108087116736458e-04,2.076243095898116023e-03
4.540908363345337933e-09,-6.846350866146751288e-04,2.047967322024763122e-03
4.560912364945978705e-09,-6.246012256632180572e-04,2.029971293971936843e-03
4.580916366546618651e-09,-5.759466461701031334e-04,2.025327794810670348e-03
4.600920368147258596e-09,-5.394893323723529317e-04,2.036286030462194398e-03
4.620924369747899369e-09,-5.152109504878662517e-04,2.064056121070086125e-03
4.640928371348539315e-09,-5.022904276969137639e-04,2.108653566353472196e-03
4.660932372949179260e-09,-4.991853336719481163e-04,2.168816380290013515e-03
4.680936374549820033e-09,-5.037555660283566088e-04,2.242003372392972586e-03
4.700940376150459978e-09,-5.134213478236623581e-04,2.324477179479471790e-03
4.720944377751099924e-09,-5.253455473353517164e-04,2.411470411127027581e-03
4.740948379351740696e-09,-5.366289458036291402e-04,2.497427980513911364e-03
4.760952380952380642e-09,-5.445063882759945207e-04,2.576313676163970948e-03
4.780956382553021414e-09,-5.465317946581510792e-04,2.641964605139034486e-03
4.800960384153661360e-09,-5.407407767594253926e-04,2.688473590546094482e-03
4.820964385754301305e-09,-5.257810528720842196e-04,2.710577174194612332e-03
4.840968387354942078e-09,-5.010028838678627552e-04,2.704025734108897894e-03
4.860972388955582023e-09,-4.665042484028622083e-04,2.665912476804109532e-03
4.880976390556222796e-09,-4.231282765919009586e-04,2.594939724034093197e-03
4.900980392156862742e-09,-3.724134002948815926e-04,2.491603916719764122e-03
4.920984393757502687e-09,-3.164995750476482048e-04,2.358284956495600160e-03
4.940988395358143460e-09,-2.579966078567609393e-04,2.199230674817730276e-03
4.960992396958783405e-09,-1.998229244710604123e-04,2.020433075563779057e-03
4.980996398559423351e-09,-1.450248907532523262e-04,1.829399207969680322e-03
5.001000400160064123e-09,-9.658795864806657080e-05,1.634825733831996161e-03
5.021004401760704069e-09,-5.725136945566550135e-05,1.446192091106458322e-03
5.041008403361344014e-09,-2.933788944363134349e-05,1.273292275619204196e-03
5.061012404961984787e-09,-1.460909284002401073e-05,1.125729350055337374e-03
5.081016406562624732e-09,-1.415510516403812823e-05,1.012399586468068317e-03
5.101020408163265505e-09,-2.832557480701252856e-05,9.409944682838230785e-04
5.121024409763905450e-09,-5.670608475212820994e-05,9.175485164065944792e-04
5.141028411364545396e-09,-9.814140607756317121e-05,9.460590482008012772e-04
5.161032412965186169e-09,-1.508041024274610321e-04,1.028200606807265624e-03
5.181036414565826114e-09,-2.123041967512771550e-04,1.163152079220650201e-03
5.201040416166466887e-09,-2.798330791617887258e-04,1.347548702692663233e-03
5.221044417767106832e-09,-3.503327223123546422e-04,1.575564554739561796e-03
