# Time (s),DUT (V),TEM (V)
0.000000000000000000e+00,-2.132645285706530336e-03,-2.132645285706530336e-03
2.000400160064025567e-11,-1.968155548099064477e-03,-1.968155548099064477e-03
4.000800320128051133e-11,-1.778375927142500802e-03,-1.778375927142500802e-03
6.001200480192076700e-11,-1.573806372247002613e-03,-1.573806372247002613e-03
8.001600640256102266e-11,-1.365657552474391261e-03,-1.365657552474391261e-03
1.000200080032012783e-10,-1.165171926431886719e-03,-1.165171926431886719e-03
1.200240096038415340e-10,-9.829426386044877537e-04,-9.829426386044877537e-04
1.400280112044817897e-10,-8.282723153985692552e-04,-8.282723153985692552e-04
1.600320128051220453e-10,-7.086115116564987949e-04,-7.086115116564987949e-04
1.800360144057623010e-10,-6.291117565986923494e-04,-6.291117565986923494e-04
2.000400160064025567e-10,-5.923211567409190003e-04,-5.923211567409190003e-04
2.200440176070428123e-10,-5.980417596107462678e-04,-5.980417596107462678e-04
2.400480192076830680e-10,-6.433579046784717844e-04,-6.433579046784717844e-04
2.600520208083233237e-10,-7.228342035267261781e-04,-7.228342035267261781e-04
2.800560224089635793e-10,-8.288712564038992108e-04,-8.288712564038992108e-04
3.000600240096038350e-10,-9.521973823863849303e-04,-9.521973823863849303e-04
3.200640256102440907e-10,-1.082466128868945707e-03,-1.082466128868945707e-03
3.400680272108843463e-10,-1.208922666107967690e-03,-1.208922666107967690e-03
3.600720288115246020e-10,-1.321097783309021839e-03,-1.321097783309021839e-03
3.800760304121648577e-10,-1.409486363234613553e-03,-1.409486363234613553e-03
4.000800320128051133e-10,-1.466168043443050704e-03,-1.466168043443050704e-03
4.200840336134453690e-10,-1.485331229047782585e-03,-1.485331229047782585e-03
4.400880352140856247e-10,-1.463667495802180221e-03,-1.463667495802180221e-03
4.600920368147258803e-10,-1.400611354026917547e-03,-1.400611354026917547e-03
4.800960384153661360e-10,-1.298409845319802372e-03,-1.298409845319802372e-03
5.001000400160063916e-10,-1.162016928504134563e-03,-1.162016928504134563e-03
5.201040416166466473e-10,-9.988184301029613341e-04,-9.988184301029613341e-04
5.401080432172869030e-10,-8.182038171897487982e-04,-8.182038171897487982e-04
5.601120448179271586e-10,-6.310105461350487424e-04,-6.310105461350487424e-04
5.801160464185674143e-10,-4.488746594559860060e-04,-4.488746594559860060e-04
6.001200480192076700e-10,-2.835271519730850473e-04,-2.835271519730850473e-04
6.201240496198479256e-10,-1.460790423079500258e-04,-1.460790423079500258e-04
6.401280512204881813e-10,-4.633885296293512154e-05,-4.633885296293512154e-05
6.601320528211284370e-10,7.795727148200378744e-06,7.795727148200378744e-06
6.801360544217686926e-10,1.083473112227536345e-05,1.083473112227536345e-05
7.001400560224089483e-10,-3.994910698173941222e-05,-3.994910698173941222e-05
7.201440576230492040e-10,-1.443290600149798090e-04,-1.443290600149798090e-04
7.401480592236894596e-10,-2.991085585149319721e-04,-2.991085585149319721e-04
7.601520608243297153e-10,-4.982818027860040633e-04,-4.982818027860040633e-04
7.801560624249699710e-10,-7.333610666874913319e-04,-7.333610666874913319e-04
8.001600640256102266e-10,-9.938507539977348062e-04,-9.938507539977348062e-04
8.201640656262504823e-10,-1.267839346858535372e-03,-1.267839346858535372e-03
8.401680672268907380e-10,-1.542673263919862791e-03,-1.542673263919862791e-03
8.601720688275309936e-10,-1.805671761891813106e-03,-1.805671761891813106e-03
8.801760704281712493e-10,-2.044839666604482235e-03,-2.044839666604482235e-03
9.001800720288115050e-10,-2.249535048014061466e-03,-2.249535048014061466e-03
9.201840736294517606e-10,-2.411051930198422621e-03,-2.411051930198422621e-03
9.401880752300919129e-10,-2.523083559216584681e-03,-2.523083559216584681e-03
9.601920768307322720e-10,-2.582039292609195069e-03,-2.582039292609195069e-03
9.801960784313726310e-10,-2.587197346965086717e-03,-2.587197346965086717e-03
1.000200080032012783e-09,-2.540685865988514397e-03,-2.540685865988514397e-03
1.020204081632652936e-09,-2.447295407909946645e-03,-2.447295407909946645e-03
1.040208083233293295e-09,-2.314136330886009622e-03,-2.314136330886009622e-03
1.060212084833933654e-09,-2.150164029153158168e-03,-2.150164029153158168e-03
1.080216086434573806e-09,-1.965602950861139279e-03,-1.965602950861139279e-03
1.100220088035213958e-09,-1.771306316327589609e-03,-1.771306316327589609e-03
1.120224089635854317e-09,-1.578092085458506497e-03,-1.578092085458506497e-03
1.140228091236494676e-09,-1.396096777719553353e-03,-1.396096777719553353e-03
1.160232092837134829e-09,-1.234187173161269049e-03,-1.234187173161269049e-03
1.180236094437774981e-09,-1.099465831003988486e-03,-1.099465831003988486e-03
1.200240096038415340e-09,-9.969000247378753763e-04,-9.969000247378753763e-04
1.220244097639055699e-09,-9.290955228276469606e-04,-9.290955228276469606e-04
1.240248099239695851e-09,-8.962271704085504262e-04,-8.962271704085504262e-04
1.260252100840336004e-09,-8.961280597772128525e-04,-8.961280597772128525e-04
1.280256102440976363e-09,-9.245288685374277241e-04,-9.245288685374277241e-04
1.300260104041616722e-09,-9.754293474453421247e-04,-9.754293474453421247e-04
1.320264105642256874e-09,-1.041575568095665658e-03,-1.041575568095665658e-03
1.340268107242897026e-09,-1.115009926611814977e-03,-1.115009926611814977e-03
1.360272108843537385e-09,-1.187656462718714948e-03,-1.187656462718714948e-03
1.380276110444177744e-09,-1.251902072745730496e-03,-1.251902072745730496e-03
1.400280112044817897e-09,-1.301134790719776129e-03,-1.301134790719776129e-03
1.420284113645458049e-09,-1.330203438277386893e-03,-1.330203438277386893e-03
1.440288115246098408e-09,-1.335768393118853641e-03,-1.335768393118853641e-03
1.460292116846738767e-09,-1.316520638896360573e-03,-1.316520638896360573e-03
1.480296118447378919e-09,-1.273255151763110805e-03,-1.273255151763110805e-03
1.500300120048019072e-09,-1.208794469610081305e-03,-1.208794469610081305e-03
1.520304121648659431e-09,-1.127768340175072485e-03,-1.127768340175072485e-03
1.540308123249299790e-09,-1.036264997267759324e-03,-1.036264997267759324e-03
1.560312124849939942e-09,-9.413782388044747689e-04,-9.413782388044747689e-04
1.580316126450580094e-09,-8.506815103633477704e-04,-8.506815103633477704e-04
1.600320128051220453e-09,-7.716651700939627240e-04,-7.716651700939627240e-04
1.620324129651860812e-09,-7.111756941219414367e-04,-7.111756941219414367e-04
1.640328131252500965e-09,-6.748955994401693859e-04,-6.748955994401693859e-04
1.660332132853141117e-09,-6.669003032732620821e-04,-6.669003032732620821e-04
1.680336134453781476e-09,-6.893231611205857725e-04,-6.893231611205857725e-04
1.700340136054421835e-09,-7.421528452428834350e-04,-7.421528452428834350e-04
1.720344137655061987e-09,-8.231784947256576149e-04,-8.231784947256576149e-04
1.740348139255702140e-09,-9.280882505927042295e-04,-9.280882505927042295e-04
1.760352140856342499e-09,-1.050716521811242369e-03,-1.050716521811242369e-03
1.780356142456982858e-09,-1.183425280583595739e-03,-1.183425280583595739e-03
1.800360144057623010e-09,-1.317595518267643392e-03,-1.317595518267643392e-03
1.820364145658263162e-09,-1.444197314158191144e-03,-1.444197314158191144e-03
1.840368147258903521e-09,-1.554401293552857763e-03,-1.554401293552857763e-03
1.860372148859543880e-09,-1.640190968343814559e-03,-1.640190968343814559e-03
1.880376150460183826e-09,-1.694934800102668084e-03,-1.694934800102668084e-03
1.900380152060824185e-09,-1.713878871155707310e-03,-1.713878871155707310e-03
1.920384153661464544e-09,-1.694525688253220586e-03,-1.694525688253220586e-03
1.940388155262104903e-09,-1.636871602205332071e-03,-1.636871602205332071e-03
1.960392156862745262e-09,-1.543484178950553509e-03,-1.543484178950553509e-03
1.980396158463385208e-09,-1.419411050305107065e-03,-1.419411050305107065e-03
2.000400160064025567e-09,-1.271922661584459074e-03,-1.271922661584459074e-03
2.020404161664665926e-09,-1.110102222513579141e-03,-1.110102222513579141e-03
2.040408163265305871e-09,-9.443063542579089318e-04,-9.443063542579089318e-04
2.060412164865946230e-09,-7.855287436215896164e-04,-7.855287436215896164e-04
2.080416166466586589e-09,-6.447059807115987102e-04,-6.447059807115987102e-04
2.100420168067226948e-09,-5.320092026060662099e-04,-5.320092026060662099e-04
2.120424169667867307e-09,-4.561668763221960517e-04,-4.561668763221960517e-04
2.140428171268507253e-09,-4.238628843835646467e-04,-4.238628843835646467e-04
2.160432172869147612e-09,-4.392500623582298240e-04,-4.392500623582298240e-04
2.180436174469787971e-09,-5.036126982521828147e-04,-5.036126982521828147e-04
2.200440176070427916e-09,-6.152026264250820770e-04,-6.152026264250820770e-04
2.220444177671068276e-09,-7.692629681275570119e-04,-7.692629681275570119e-04
2.240448179271708635e-09,-9.582419353469882059e-04,-9.582419353469882059e-04
2.260452180872348994e-09,-1.172187147150869713e-03,-1.172187147150869713e-03
2.280456182472989353e-09,-1.399299360163406593e-03,-1.399299360163406593e-03
2.300460184073629298e-09,-1.626614121342131189e-03,-1.626614121342131189e-03
2.320464185674269657e-09,-1.840771281599351420e-03,-1.840771281599351420e-03
2.340468187274910016e-09,-2.028826125584673803e-03,-2.028826125584673803e-03
2.360472188875549962e-09,-2.179052495012972351e-03,-2.179052495012972351e-03
2.380476190476190321e-09,-2.281687957766965688e-03,-2.281687957766965688e-03
2.400480192076830680e-09,-2.329573861511716713e-03,-2.329573861511716713e-03
2.420484193677471039e-09,-2.318648873460383859e-03,-2.318648873460383859e-03
2.440488195278111398e-09,-2.248263024432227419e-03,-2.248263024432227419e-03
2.460492196878751344e-09,-2.121289853512041152e-03,-2.121289853512041152e-03
2.480496198479391703e-09,-1.944026357533843634e-03,-1.944026357533843634e-03
2.500500200080032062e-09,-1.725883353515032673e-03,-1.725883353515032673e-03
2.520504201680672007e-09,-1.478881771262546482e-03,-1.478881771262546482e-03
2.540508203281312366e-09,-1.216982508587799178e-03,-1.216982508587799178e-03
2.560512204881952725e-09,-9.552880451888467973e-04,-9.552880451888467973e-04
2.580516206482593084e-09,-7.091623543975920539e-04,-7.091623543975920539e-04
2.600520208083233443e-09,-4.933212368847170442e-04,-4.933212368847170442e-04
2.620524209683873389e-09,-3.209476548997934955e-04,-3.209476548997934955e-04
2.640528211284513748e-09,-2.028857875453310390e-04,-2.028857875453310390e-04
2.660532212885154107e-09,-1.469633776283312833e-04,-1.469633776283312833e-04
2.680536214485794052e-09,-1.574847226117757535e-04,-1.574847226117757535e-04
2.700540216086434412e-09,-2.349267907609527508e-04,-2.349267907609527508e-04
2.720544217687074771e-09,-3.758590000502807235e-04,-3.758590000502807235e-04
2.740548219287715130e-09,-5.730938950144839634e-04,-5.730938950144839634e-04
2.760552220888355489e-09,-8.160620976148815582e-04,-8.160620976148815582e-04
2.780556222488995434e-09,-1.091391334486330709e-03,-1.091391334486330709e-03
2.800560224089635793e-09,-1.383656885153469653e-03,-1.383656885153469653e-03
2.820564225690276152e-09,-1.676260221650095576e-03,-1.676260221650095576e-03
2.840568227290916098e-09,-1.952384576671030089e-03,-1.952384576671030089e-03
2.860572228891556457e-09,-2.195971190624291212e-03,-2.195971190624291212e-03
2.880576230492196816e-09,-2.392658369939608658e-03,-2.392658369939608658e-03
2.900580232092837175e-09,-2.530627357668175162e-03,-2.530627357668175162e-03
2.920584233693477534e-09,-2.601304278150660954e-03,-2.601304278150660954e-03
2.940588235294117480e-09,-2.599875767909255037e-03,-2.599875767909255037e-03
2.960592236894757839e-09,-2.525586852334314042e-03,-2.525586852334314042e-03
2.980596238495398198e-09,-2.381802518760350353e-03,-2.381802518760350353e-03
3.000600240096038143e-09,-2.175828496389043028e-03,-2.175828496389043028e-03
3.020604241696678502e-09,-1.918501133113641828e-03,-1.918501133113641828e-03
3.040608243297318861e-09,-1.623570087024196404e-03,-1.623570087024196404e-03
3.060612244897959220e-09,-1.306909985490699441e-03,-1.306909985490699441e-03
3.080616246498599579e-09,-9.856074890217012777e-04,-9.856074890217012777e-04
3.100620248099239525e-09,-6.769777016345983420e-04,-6.769777016345983420e-04
3.120624249699879884e-09,-3.975681334812501948e-04,-3.975681334812501948e-04
3.140628251300520243e-09,-1.622091810290369129e-04,-1.622091810290369129e-04
3.160632252901160188e-09,1.683270524666167204e-05,1.683270524666167204e-05
3.180636254501800547e-09,1.305491794223908035e-04,1.305491794223908035e-04
3.200640256102440907e-09,1.736906971233335593e-04,1.736906971233335593e-04
3.220644257703081266e-09,1.450446180613088000e-04,1.450446180613088000e-04
3.240648259303721625e-09,4.747498395008579672e-05,4.747498395008579672e-05
3.260652260904361570e-09,-1.122774236766904742e-04,-1.122774236766904742e-04
3.280656262505001929e-09,-3.240217475346574049e-04,-3.240217475346574049e-04
3.300660264105642288e-09,-5.747438661526656049e-04,-5.747438661526656049e-04
3.320664265706282234e-09,-8.493948460001731881e-04,-8.493948460001731881e-04
3.340668267306922593e-09,-1.131792963319570551e-03,-1.131792963319570551e-03
3.360672268907562952e-09,-1.405584608666843142e-03,-1.405584608666843142e-03
3.380676270508203311e-09,-1.655206116572680974e-03,-1.655206116572680974e-03
3.400680272108843670e-09,-1.866788829574009831e-03,-1.866788829574009831e-03
3.420684273709483615e-09,-2.028953484401341528e-03,-2.028953484401341528e-03
3.440688275310123975e-09,-2.133447056748599864e-03,-2.133447056748599864e-03
3.460692276910764334e-09,-2.175585077381914523e-03,-2.175585077381914523e-03
3.480696278511404279e-09,-2.154474520667510815e-03,-2.154474520667510815e-03
3.500700280112044638e-09,-2.073005916163654216e-03,-2.073005916163654216e-03
3.520704281712684997e-09,-1.937617505517220083e-03,-1.937617505517220083e-03
3.540708283313325356e-09,-1.757848184938575527e-03,-1.757848184938575527e-03
3.560712284913965715e-09,-1.545708780322562446e-03,-1.545708780322562446e-03
3.580716286514605661e-09,-1.314912111039346666e-03,-1.314912111039346666e-03
3.600720288115246020e-09,-1.080010642735179053e-03,-1.080010642735179053e-03
3.620724289715886379e-09,-8.554958033866727875e-04,-8.554958033866727875e-04
3.640728291316526324e-09,-6.549149267747692710e-04,-6.549149267747692710e-04
3.660732292917166683e-09,-4.900601913312165568e-04,-4.900601913312165568e-04
3.680736294517807043e-09,-3.702789551972218100e-04,-3.702789551972218100e-04
3.700740296118447402e-09,-3.019468753972731016e-04,-3.019468753972731016e-04
3.720744297719087761e-09,-2.881346545252694356e-04,-2.881346545252694356e-04
3.740748299319727706e-09,-3.284868532333304640e-04,-3.284868532333304640e-04
3.760752300920367652e-09,-4.193177265586065698e-04,-4.193177265586065698e-04
3.780756302521008424e-09,-5.539153372848954187e-04,-5.539153372848954187e-04
3.800760304121648370e-09,-7.230321323873196114e-04,-7.230321323873196114e-04
3.820764305722289142e-09,-9.155285590134491173e-04,-9.155285590134491173e-04
3.840768307322929088e-09,-1.119126870452198186e-03,-1.119126870452198186e-03
3.860772308923569033e-09,-1.321225616846013595e-03,-1.321225616846013595e-03
3.880776310524209806e-09,-1.509721840653617791e-03,-1.509721840653617791e-03
3.900780312124849751e-09,-1.673787911997714909e-03,-1.673787911997714909e-03
3.920784313725490524e-09,-1.804553238270536087e-03,-1.804553238270536087e-03
3.940788315326130470e-09,-1.895647545831489686e-03,-1.895647545831489686e-03
3.960792316926770415e-09,-1.943571639316459205e-03,-1.943571639316459205e-03
3.980796318527411188e-09,-1.947872902553602617e-03,-1.947872902553602617e-03
4.000800320128051133e-09,-1.911115585042153084e-03,-1.911115585042153084e-03
4.020804321728691079e-09,-1.838649300411947197e-03,-1.838649300411947197e-03
4.040808323329331851e-09,-1.738192291451137045e-03,-1.738192291451137045e-03
4.060812324929971797e-09,-1.619258049820894094e-03,-1.619258049820894094e-03
4.080816326530611742e-09,-1.492464046898953024e-03,-1.492464046898953024e-03
4.100820328131252515e-09,-1.368768983424631684e-03,-1.368768983424631684e-03
4.120824329731892460e-09,-1.258689608044598514e-03,-1.258689608044598514e-03
4.140828331332533233e-09,-1.171549488365208761e-03,-1.171549488365208761e-03
4.160832332933173179e-09,-1.114810053495004149e-03,-1.114810053495004149e-03
4.180836334533813124e-09,-1.093528892028313489e-03,-1.093528892028313489e-03
4.200840336134453897e-09,-1.109982020911527527e-03,-1.109982020911527527e-03
4.220844337735093842e-09,-1.163476163809396696e-03,-1.163476163809396696e-03
4.240848339335734615e-09,-1.250364672894983126e-03,-1.250364672894983126e-03
4.260852340936374560e-09,-1.364267388279468644e-03,-1.364267388279468644e-03
4.280856342537014506e-09,-1.496481309746335378e-03,-1.496481309746335378e-03
4.300860344137655278e-09,-1.636556319338336538e-03,-1.636556319338336538e-03
4.320864345738295224e-09,-1.772999157198728790e-03,-1.772999157198728790e-03
4.340868347338935169e-09,-1.894060134583489680e-03,-1.894060134583489680e-03
4.360872348939575942e-09,-1.988551240001440457e-03,-1.988551240001440457e-03
4.380876350540215887e-09,-2.046641748043560773e-03,-2.046641748043560773e-03
4.400880352140855833e-09,-2.060578359234978545e-03,-2.060578359234978545e-03
4.420884353741496606e-09,-2.025281246769194791e-03,-2.025281246769194791e-03
4.440888355342136551e-09,-1.938774907119562938e-03,-1.938774907119562938e-03
4.460892356942777324e-09,-1.802422947525251758e-03,-1.802422947525251758e-03
4.480896358543417269e-09,-1.620948259944294265e-03,-1.620948259944294265e-03
4.500900360144057215e-09,-1.402233657743721159e-03,-1.402233657743721159e-03
4.520904361744697987e-09,-1.156912129469277054e-03,-1.156912129469277054e-03
4.540908363345337933e-09,-8.977695005262388128e-04,-8.977695005262388128e-04
4.560912364945978705e-09,-6.389946175108125997e-04,-6.389946175108125997e-04
4.580916366546618651e-09,-3.953223874240236694e-04,-3.953223874240236694e-04
4.600920368147258596e-09,-1.811224489851168042e-04,-1.811224489851168042e-04
4.620924369747899369e-09,-9.490430182808014606e-06,-9.490430182808014606e-06
4.640928371348539315e-09,1.086006376964843330e-04,1.086006376964843330e-04
4.660932372949179260e-09,1.650341943402160855e-04,1.650341943402160855e-04
4.680936374549820033e-09,1.551212459229442614e-04,1.551212459229442614e-04
4.700940376150459978e-09,7.797019845331820524e-05,7.797019845331820524e-05
4.720944377751099924e-09,-6.337095032652934122e-05,-6.337095032652934122e-05
4.740948379351740696e-09,-2.620125526064425911e-04,-2.620125526064425911e-04
4.760952380952380642e-09,-5.075590622897889785e-04,-5.075590622897889785e-04
4.780956382553021414e-09,-7.866654484353166350e-04,-7.866654484353166350e-04
4.800960384153661360e-09,-1.083783213605445236e-03,-1.083783213605445236e-03
4.820964385754301305e-09,-1.382052844215238881e-03,-1.382052844215238881e-03
4.840968387354942078e-09,-1.664289965647438533e-03,-1.664289965647438533e-03
4.860972388955582023e-09,-1.914006097631658181e-03,-1.914006097631658181e-03
4.880976390556222796e-09,-2.116402126667457639e-03,-2.116402126667457639e-03
4.900980392156862742e-09,-2.259273632433578607e-03,-2.259273632433578607e-03
4.920984393757502687e-09,-2.333771989623703406e-03,-2.333771989623703406e-03
4.940988395358143460e-09,-2.334973446900668551e-03,-2.334973446900668551e-03
4.960992396958783405e-09,-2.262219673476990531e-03,-2.262219673476990531e-03
4.980996398559423351e-09,-2.119206884550490361e-03,-2.119206884550490361e-03
5.001000400160064123e-09,-1.913815784388152221e-03,-1.913815784388152221e-03
5.021004401760704069e-09,-1.657690277241663946e-03,-1.657690277241663946e-03
5.041008403361344014e-09,-1.365588227362921720e-03,-1.365588227362921720e-03
5.061012404961984787e-09,-1.054541554466338280e-03,-1.054541554466338280e-03
5.081016406562624732e-09,-7.428747615288295008e-04,-7.428747615288295008e-04
5.101020408163265505e-09,-4.491398705787634136e-04,-4.491398705787634136e-04
5.121024409763905450e-09,-1.910311293646842830e-04,-1.910311293646842830e-04
5.141028411364545396e-09,1.565559936525910632e-05,1.565559936525910632e-05
5.161032412965186169e-09,1.579562555203215121e-04,1.579562555203215121e-04
