# Time (s),DUT (V),TEM (V)
0.000000000000000000e+00,-2.647350837964058956e-03,-2.647350837964058956e-03
2.000400160064025567e-11,-2.035949159042721272e-03,-2.035949159042721272e-03
4.000800320128051133e-11,-1.379996952740728195e-03,-1.379996952740728195e-03
6.001200480192076700e-11,-7.234654105890938247e-04,-7.234654105890938247e-04
8.001600640256102266e-11,-1.103648544635358854e-04,-1.103648544635358854e-04
1.000200080032012783e-10,4.180727164126870048e-04,4.180727164126870048e-04
1.200240096038415340e-10,8.260387817853428105e-04,8.260387817853428105e-04
1.400280112044817897e-10,1.085453984482973987e-03,1.085453984482973987e-03
1.600320128051220453e-10,1.177788162326218581e-03,1.177788162326218581e-03
1.800360144057623010e-10,1.095278775609819302e-03,1.095278775609819302e-03
2.000400160064025567e-10,8.414693650666754199e-04,8.414693650666754199e-04
2.200440176070428123e-10,4.310322818099031339e-04,4.310322818099031339e-04
2.400480192076830680e-10,-1.111151046991652676e-04,-1.111151046991652676e-04
2.600520208083233237e-10,-7.513470090966685964e-04,-7.513470090966685964e-04
2.800560224089635793e-10,-1.449423681198618594e-03,-1.449423681198618594e-03
3.000600240096038350e-10,-2.161013348949512337e-03,-2.161013348949512337e-03
3.200640256102440907e-10,-2.840483996576394742e-03,-2.840483996576394742e-03
3.400680272108843463e-10,-3.443789854642804928e-03,-3.443789854642804928e-03
3.600720288115246020e-10,-3.931270971127651115e-03,-3.931270971127651115e-03
3.800760304121648577e-10,-4.270189125131441422e-03,-4.270189125131441422e-03
4.000800320128051133e-10,-4.436839363723396601e-03,-4.436839363723396601e-03
4.200840336134453690e-10,-4.418102614591765641e-03,-4.418102614591765641e-03
4.400880352140856247e-10,-4.212339538725084348e-03,-4.212339538725084348e-03
4.600920368147258803e-10,-3.829566883288637071e-03,-3.829566883288637071e-03
4.800960384153661360e-10,-3.290902512508537409e-03,-3.290902512508537409e-03
5.001000400160063916e-10,-2.627311223173391021e-03,-2.627311223173391021e-03
5.201040416166466473e-10,-1.877727508527305376e-03,-1.877727508527305376e-03
5.401080432172869030e-10,-1.086670845692377322e-03,-1.086670845692377322e-03
5.601120448179271586e-10,-3.015013563325371791e-04,-3.015013563325371791e-04
5.801160464185674143e-10,4.305132224405099029e-04,4.305132224405099029e-04
6.001200480192076700e-10,1.065135899722106537e-03,1.065135899722106537e-03
6.201240496198479256e-10,1.563919829105792038e-03,1.563919829105792038e-03
6.401280512204881813e-10,1.896615086105375150e-03,1.896615086105375150e-03
6.601320528211284370e-10,2.043070751415385338e-03,2.043070751415385338e-03
6.801360544217686926e-10,1.994511435684561372e-03,1.994511435684561372e-03
7.001400560224089483e-10,1.754106285190550063e-03,1.754106285190550063e-03
7.201440576230492040e-10,1.336792686561517332e-03,1.336792686561517332e-03
7.401480592236894596e-10,7.683635834677829748e-04,7.683635834677829748e-04
7.601520608243297153e-10,8.387360286853085510e-05,8.387360286853085510e-05
7.801560624249699710e-10,-6.745378470674325911e-04,-6.745378470674325911e-04
8.001600640256102266e-10,-1.460271411865467911e-03,-1.460271411865467911e-03
8.201640656262504823e-10,-2.225176901837801636e-03,-2.225176901837801636e-03
8.401680672268907380e-10,-2.922564656712296847e-03,-2.922564656712296847e-03
8.601720688275309936e-10,-3.510130158635859851e-03,-3.510130158635859851e-03
8.801760704281712493e-10,-3.952607766529895456e-03,-3.952607766529895456e-03
9.001800720288115050e-10,-4.223985917045733167e-03,-4.223985917045733167e-03
9.201840736294517606e-10,-4.309143207816448599e-03,-4.309143207816448599e-03
9.401880752300919129e-10,-4.204800781992213896e-03,-4.204800781992213896e-03
9.601920768307322720e-10,-3.919729136750408141e-03,-3.919729136750408141e-03
9.801960784313726310e-10,-3.474194221344630018e-03,-3.474194221344630018e-03
1.000200080032012783e-09,-2.898675547858046986e-03,-2.898675547858046986e-03
1.020204081632652936e-09,-2.231935005330144741e-03,-2.231935005330144741e-03
1.040208083233293295e-09,-1.518556248499067360e-03,-1.518556248499067360e-03
1.060212084833933654e-09,-8.061083195692842710e-04,-8.061083195692842710e-04
1.080216086434573806e-09,-1.421114037495788769e-04,-1.421114037495788769e-04
1.100220088035213958e-09,4.290042428142384163e-04,4.290042428142384163e-04
1.120224089635854317e-09,8.687539884299046514e-04,8.687539884299046514e-04
1.140228091236494676e-09,1.147087865754385693e-03,1.147087865754385693e-03
1.160232092837134829e-09,1.244354053815000232e-03,1.244354053815000232e-03
1.180236094437774981e-09,1.152610365397915143e-03,1.152610365397915143e-03
1.200240096038415340e-09,8.761978572441612902e-04,8.761978572441612902e-04
1.220244097639055699e-09,4.315368070724003892e-04,4.315368070724003892e-04
1.240248099239695851e-09,-1.538458753876782541e-04,-1.538458753876782541e-04
1.260252100840336004e-09,-8.430002726497969447e-04,-8.430002726497969447e-04
1.280256102440976363e-09,-1.591845530042728610e-03,-1.591845530042728610e-03
1.300260104041616722e-09,-2.351928974425074141e-03,-2.351928974425074141e-03
1.320264105642256874e-09,-3.073480785622085577e-03,-3.073480785622085577e-03
1.340268107242897026e-09,-3.708573265898547269e-03,-3.708573265898547269e-03
1.360272108843537385e-09,-4.214186197859614083e-03,-4.214186197859614083e-03
1.380276110444177744e-09,-4.554984655348160057e-03,-4.554984655348160057e-03
1.400280112044817897e-09,-4.705632682659903823e-03,-4.705632682659903823e-03
1.420284113645458049e-09,-4.652494467774454662e-03,-4.652494467774454662e-03
1.440288115246098408e-09,-4.394612284787531228e-03,-4.394612284787531228e-03
1.460292116846738767e-09,-3.943895250386708975e-03,-3.943895250386708975e-03
1.480296118447378919e-09,-3.324502054721288277e-03,-3.324502054721288277e-03
1.500300120048019072e-09,-2.571451230738325787e-03,-2.571451230738325787e-03
1.520304121648659431e-09,-1.728541067499036630e-03,-1.728541067499036630e-03
1.540308123249299790e-09,-8.457049057267505094e-04,-8.457049057267505094e-04
1.560312124849939942e-09,2.403647334526300833e-05,2.403647334526300833e-05
1.580316126450580094e-09,8.278376245595866611e-04,8.278376245595866611e-04
1.600320128051220453e-09,1.516304221587049059e-03,1.516304221587049059e-03
1.620324129651860812e-09,2.046577830507394571e-03,2.046577830507394571e-03
1.640328131252500965e-09,2.385036532603250665e-03,2.385036532603250665e-03
1.660332132853141117e-09,2.509441230921743808e-03,2.509441230921743808e-03
1.680336134453781476e-09,2.410391167632028493e-03,2.410391167632028493e-03
1.700340136054421835e-09,2.091994527032902795e-03,2.091994527032902795e-03
1.720344137655061987e-09,1.571708392969167192e-03,1.571708392969167192e-03
1.740348139255702140e-09,8.793537730399127172e-04,8.793537730399127172e-04
1.760352140856342499e-09,5.536269781290288237e-05,5.536269781290288237e-05
1.780356142456982858e-09,-8.516376481922836254e-04,-8.516376481922836254e-04
1.800360144057623010e-09,-1.787757207305701312e-03,-1.787757207305701312e-03
1.820364145658263162e-09,-2.697112549487999146e-03,-2.697112549487999146e-03
1.840368147258903521e-09,-3.525232794997049633e-03,-3.525232794997049633e-03
1.860372148859543880e-09,-4.222391966900604539e-03,-4.222391966900604539e-03
1.880376150460183826e-09,-4.746661613102639080e-03,-4.746661613102639080e-03
1.900380152060824185e-09,-5.066494197578504284e-03,-5.066494197578504284e-03
1.920384153661464544e-09,-5.162676250777424591e-03,-5.162676250777424591e-03
1.940388155262104903e-09,-5.029528850769405569e-03,-5.029528850769405569e-03
1.960392156862745262e-09,-4.675279306434597382e-03,-4.675279306434597382e-03
1.980396158463385208e-09,-4.121579070573375483e-03,-4.121579070573375483e-03
2.000400160064025567e-09,-3.402195752293130787e-03,-3.402195752293130787e-03
2.020404161664665926e-09,-2.560958338914050367e-03,-2.560958338914050367e-03
2.040408163265305871e-09,-1.649081183720900630e-03,-1.649081183720900630e-03
2.060412164865946230e-09,-7.220310639104856676e-04,-7.220310639104856676e-04
2.080416166466586589e-09,1.638697672922849382e-04,1.638697672922849382e-04
2.100420168067226948e-09,9.548949236328969133e-04,9.548949236328969133e-04
2.120424169667867307e-09,1.603206323810254467e-03,1.603206323810254467e-03
2.140428171268507253e-09,2.069783988428284052e-03,2.069783988428284052e-03
2.160432172869147612e-09,2.326811707610323011e-03,2.326811707610323011e-03
2.180436174469787971e-09,2.359370659932855281e-03,2.359370659932855281e-03
2.200440176070427916e-09,2.166335882128157114e-03,2.166335882128157114e-03
2.220444177671068276e-09,1.760419904962774468e-03,1.760419904962774468e-03
2.240448179271708635e-09,1.167360814388052970e-03,1.167360814388052970e-03
2.260452180872348994e-09,4.243051731775915000e-04,4.243051731775915000e-04
2.280456182472989353e-09,-4.225136689376746872e-04,-4.225136689376746872e-04
2.300460184073629298e-09,-1.320657468162100487e-03,-1.320657468162100487e-03
2.320464185674269657e-09,-2.214745852337321116e-03,-2.214745852337321116e-03
2.340468187274910016e-09,-3.049896857533778219e-03,-3.049896857533778219e-03
2.360472188875549962e-09,-3.775131010201076241e-03,-3.775131010201076241e-03
2.380476190476190321e-09,-4.346526964635987270e-03,-4.346526964635987270e-03
2.400480192076830680e-09,-4.729932175435760597e-03,-4.729932175435760597e-03
2.420484193677471039e-09,-4.903059838030664370e-03,-4.903059838030664370e-03
2.440488195278111398e-09,-4.856841646457391720e-03,-4.856841646457391720e-03
2.460492196878751344e-09,-4.595952412152129636e-03,-4.595952412152129636e-03
2.480496198479391703e-09,-4.138474361471401047e-03,-4.138474361471401047e-03
2.500500200080032062e-09,-3.514722749125625753e-03,-3.514722749125625753e-03
2.520504201680672007e-09,-2.765306923343423783e-03,-2.765306923343423783e-03
2.540508203281312366e-09,-1.938548867961119868e-03,-1.938548867961119868e-03
2.560512204881952725e-09,-1.087421522407467636e-03,-1.087421522407467636e-03
2.580516206482593084e-09,-2.661993111599624917e-04,-2.661993111599624917e-04
2.600520208083233443e-09,4.729685997016076435e-04,4.729685997016076435e-04
2.620524209683873389e-09,1.083346906840820106e-03,1.083346906840820106e-03
2.640528211284513748e-09,1.526557841875963908e-03,1.526557841875963908e-03
2.660532212885154107e-09,1.774994725449565878e-03,1.774994725449565878e-03
2.680536214485794052e-09,1.813553471479753543e-03,1.813553471479753543e-03
2.700540216086434412e-09,1.640572938085881408e-03,1.640572938085881408e-03
2.720544217687074771e-09,1.267924746326045153e-03,1.267924746326045153e-03
2.740548219287715130e-09,7.202466947164622157e-04,7.202466947164622157e-04
2.760552220888355489e-09,3.336783000297679699e-05,3.336783000297679699e-05
2.780556222488995434e-09,-7.479757956771721601e-04,-7.479757956771721601e-04
2.800560224089635793e-09,-1.572990852088555769e-03,-1.572990852088555769e-03
2.820564225690276152e-09,-2.388062310510598394e-03,-2.388062310510598394e-03
2.840568227290916098e-09,-3.140170701457513890e-03,-3.140170701457513890e-03
2.860572228891556457e-09,-3.780275156167981800e-03,-3.780275156167981800e-03
2.880576230492196816e-09,-4.266448197257368367e-03,-4.266448197257368367e-03
2.900580232092837175e-09,-4.566563589115563669e-03,-4.566563589115563669e-03
2.920584233693477534e-09,-4.660366446938978002e-03,-4.660366446938978002e-03
2.940588235294117480e-09,-4.540793501956673708e-03,-4.540793501956673708e-03
2.960592236894757839e-09,-4.214458513659568792e-03,-4.214458513659568792e-03
2.980596238495398198e-09,-3.701270359320748930e-03,-3.701270359320748930e-03
3.000600240096038143e-09,-3.033206020120668683e-03,-3.033206020120668683e-03
3.020604241696678502e-09,-2.252314083293010128e-03,-2.252314083293010128e-03
3.040608243297318861e-09,-1.408073126466584737e-03,-1.408073126466584737e-03
3.060612244897959220e-09,-5.542703651055364521e-04,-5.542703651055364521e-04
3.080616246498599579e-09,2.544033721494718802e-04,2.544033721494718802e-04
3.100620248099239525e-09,9.658278768338531863e-04,9.658278768338531863e-04
3.120624249699879884e-09,1.533777611866674788e-03,1.533777611866674788e-03
3.140628251300520243e-09,1.920885074511016928e-03,1.920885074511016928e-03
3.160632252901160188e-09,2.101055134719068476e-03,2.101055134719068476e-03
3.180636254501800547e-09,2.061176103082217742e-03,2.061176103082217742e-03
3.200640256102440907e-09,1.802017176813084948e-03,1.802017176813084948e-03
3.220644257703081266e-09,1.338252871111824012e-03,1.338252871111824012e-03
3.240648259303721625e-09,6.976098771450038420e-04,6.976098771450038420e-04
3.260652260904361570e-09,-8.081294441595146018e-05,-8.081294441595146018e-05
3.280656262505001929e-09,-9.489485004174418818e-04,-9.489485004174418818e-04
3.300660264105642288e-09,-1.852740510425548688e-03,-1.852740510425548688e-03
3.320664265706282234e-09,-2.735512188738890241e-03,-2.735512188738890241e-03
3.340668267306922593e-09,-3.541514011449810664e-03,-3.541514011449810664e-03
3.360672268907562952e-09,-4.219428112217099222e-03,-4.219428112217099222e-03
3.380676270508203311e-09,-4.725608904248320384e-03,-4.725608904248320384e-03
3.400680272108843670e-09,-5.026855444991609745e-03,-5.026855444991609745e-03
3.420684273709483615e-09,-5.102539878882689402e-03,-5.102539878882689402e-03
3.440688275310123975e-09,-4.945956233337754984e-03,-4.945956233337754984e-03
3.460692276910764334e-09,-4.564802421561494662e-03,-4.564802421561494662e-03
3.480696278511404279e-09,-3.980762490894436748e-03,-3.980762490894436748e-03
3.500700280112044638e-09,-3.228212555600394953e-03,-3.228212555600394953e-03
3.520704281712684997e-09,-2.352128928799768637e-03,-2.352128928799768637e-03
3.540708283313325356e-09,-1.405327254798093266e-03,-1.405327254798093266e-03
3.560712284913965715e-09,-4.452037679894514655e-04,-4.452037679894514655e-04
3.580716286514605661e-09,4.698185118616655682e-04,4.698185118616655682e-04
3.600720288115246020e-09,1.283916813176016938e-03,1.283916813176016938e-03
3.620724289715886379e-09,1.947341900423857439e-03,1.947341900423857439e-03
3.640728291316526324e-09,2.419519744025333281e-03,2.419519744025333281e-03
3.660732292917166683e-09,2.671586506720144243e-03,2.671586506720144243e-03
3.680736294517807043e-09,2.688196891712427324e-03,2.688196891712427324e-03
3.700740296118447402e-09,2.468491135895718031e-03,2.468491135895718031e-03
3.720744297719087761e-09,2.026158477759086758e-03,2.026158477759086758e-03
3.740748299319727706e-09,1.388591499223787093e-03,1.388591499223787093e-03
3.760752300920367652e-09,5.951827879954900207e-04,5.951827879954900207e-04
3.780756302521008424e-09,-3.051306920520139763e-04,-3.051306920520139763e-04
3.800760304121648370e-09,-1.256922697708420279e-03,-1.256922697708420279e-03
3.820764305722289142e-09,-2.201741508596417266e-03,-2.201741508596417266e-03
3.840768307322929088e-09,-3.081765642005680154e-03,-3.081765642005680154e-03
3.860772308923569033e-09,-3.843422226533643824e-03,-3.843422226533643824e-03
3.880776310524209806e-09,-4.440740703113966667e-03,-4.440740703113966667e-03
3.900780312124849751e-09,-4.838230739573967827e-03,-4.838230739573967827e-03
3.920784313725490524e-09,-5.013102769966233316e-03,-5.013102769966233316e-03
3.940788315326130470e-09,-4.956690575847222044e-03,-4.956690575847222044e-03
3.960792316926770415e-09,-4.674985260437157508e-03,-4.674985260437157508e-03
3.980796318527411188e-09,-4.188245707766533911e-03,-4.188245707766533911e-03
4.000800320128051133e-09,-3.529708674504722799e-03,-3.529708674504722799e-03
4.020804321728691079e-09,-2.743478385430720909e-03,-2.743478385430720909e-03
4.040808323329331851e-09,-1.881727322933783152e-03,-1.881727322933783152e-03
4.060812324929971797e-09,-1.001383545080494417e-03,-1.001383545080494417e-03
4.080816326530611742e-09,-1.605125707626488111e-04,-1.605125707626488111e-04
4.100820328131252515e-09,5.853784489352016271e-04,5.853784489352016271e-04
4.120824329731892460e-09,1.186881165532664489e-03,1.186881165532664489e-03
4.140828331332533233e-09,1.603847242789718710e-03,1.603847242789718710e-03
4.160832332933173179e-09,1.807969901740624644e-03,1.807969901740624644e-03
4.180836334533813124e-09,1.784621430498937403e-03,1.784621430498937403e-03
4.200840336134453897e-09,1.533828794158625464e-03,1.533828794158625464e-03
4.220844337735093842e-09,1.070323521218086464e-03,1.070323521218086464e-03
4.240848339335734615e-09,4.226602359962218546e-04,4.226602359962218546e-04
4.260852340936374560e-09,-3.685431012639304397e-04,-3.685431012639304397e-04
4.280856342537014506e-09,-1.253134686642914985e-03,-1.253134686642914985e-03
4.300860344137655278e-09,-2.174570734147052847e-03,-2.174570734147052847e-03
4.320864345738295224e-09,-3.073473324475497429e-03,-3.073473324475497429e-03
4.340868347338935169e-09,-3.891381104024593373e-03,-3.891381104024593373e-03
4.360872348939575942e-09,-4.574456921932228658e-03,-4.574456921932228658e-03
4.380876350540215887e-09,-5.076918536768363840e-03,-5.076918536768363840e-03
4.400880352140855833e-09,-5.363975296549062209e-03,-5.363975296549062209e-03
4.420884353741496606e-09,-5.414084178256473381e-03,-5.414084178256473381e-03
4.440888355342136551e-09,-5.220380882875028453e-03,-5.220380882875028453e-03
4.460892356942777324e-09,-4.791193187021073989e-03,-4.791193187021073989e-03
4.480896358543417269e-09,-4.149601235252073188e-03,-4.149601235252073188e-03
4.500900360144057215e-09,-3.332069316545254855e-03,-3.332069316545254855e-03
4.520904361744697987e-09,-2.386232144087962765e-03,-2.386232144087962765e-03
4.540908363345337933e-09,-1.367972066873129281e-03,-1.367972066873129281e-03
4.560912364945978705e-09,-3.379686115843435123e-04,-3.379686115843435123e-04
4.580916366546618651e-09,6.420645666782994702e-04,6.420645666782994702e-04
4.600920368147258596e-09,1.513220003553471336e-03,1.513220003553471336e-03
4.620924369747899369e-09,2.223073195186829262e-03,2.223073195186829262e-03
4.640928371348539315e-09,2.728964629145446200e-03,2.728964629145446200e-03
4.660932372949179260e-09,3.000680076898297119e-03,3.000680076898297119e-03
4.680936374549820033e-09,3.022359413183690890e-03,3.022359413183690890e-03
4.700940376150459978e-09,2.793512256226851967e-03,2.793512256226851967e-03
4.720944377751099924e-09,2.329074521082337857e-03,2.329074521082337857e-03
4.740948379351740696e-09,1.658500056187918285e-03,1.658500056187918285e-03
4.760952380952380642e-09,8.239421226715717191e-04,8.239421226715717191e-04
4.780956382553021414e-09,-1.223632321135312024e-04,-1.223632321135312024e-04
4.800960384153661360e-09,-1.121349471809110444e-03,-1.121349471809110444e-03
4.820964385754301305e-09,-2.110804813769743844e-03,-2.110804813769743844e-03
4.840968387354942078e-09,-3.029260052576768225e-03,-3.029260052576768225e-03
4.860972388955582023e-09,-3.819835378656124408e-03,-3.819835378656124408e-03
4.880976390556222796e-09,-4.433804668457392260e-03,-4.433804668457392260e-03
4.900980392156862742e-09,-4.833652973107049715e-03,-4.833652973107049715e-03
4.920984393757502687e-09,-4.995434320523146204e-03,-4.995434320523146204e-03
4.940988395358143460e-09,-4.910280529028998933e-03,-4.910280529028998933e-03
4.960992396958783405e-09,-4.584964794070413123e-03,-4.584964794070413123e-03
4.980996398559423351e-09,-4.041483036492578285e-03,-4.041483036492578285e-03
5.001000400160064123e-09,-3.315677678359098008e-03,-3.315677678359098008e-03
5.021004401760704069e-09,-2.454988765259546665e-03,-2.454988765259546665e-03
5.041008403361344014e-09,-1.515472388178963278e-03,-1.515472388178963278e-03
5.061012404961984787e-09,-5.582726989934781812e-04,-5.582726989934781812e-04
5.081016406562624732e-09,3.542314733135299614e-04,3.542314733135299614e-04
5.101020408163265505e-09,1.162363522914076431e-03,1.162363522914076431e-03
5.121024409763905450e-09,1.812921905806152848e-03,1.812921905806152848e-03
5.141028411364545396e-09,2.262551214292227858e-03,2.262551214292227858e-03
5.161032412965186169e-09,2.480498641634879160e-03,2.480498641634879160e-03
5.181036414565826114e-09,2.450581295796530352e-03,2.450581295796530352e-03
5.201040416166466887e-09,2.172239189123307147e-03,2.172239189123307147e-03
