# Time (s), DUT (V)
0.000000000000000000e+00,5.966886132293440330e-03
2.000400160064030090e-11,5.980232145504599944e-03
4.000800320128049841e-11,5.858949118725280056e-03
6.001200480192080577e-11,5.607711074467129977e-03
8.001600640256099681e-11,5.238467846093350019e-03
1.000200080032009940e-10,4.769868172141550171e-03
1.200240096038419993e-10,4.226296308571140040e-03
1.400280112044819965e-10,3.636572965902109839e-03
1.600320128051219936e-10,3.032391127634129994e-03
1.800360144057619908e-10,2.446573140604149914e-03
2.000400160064029961e-10,1.911246441876589914e-03
2.200440176070429933e-10,1.456040734654060051e-03
2.400480192076830163e-10,1.106408999131250088e-03
2.600520208083230135e-10,8.821684158204799514e-04
2.800560224089639929e-10,7.963454221194060049e-04
3.000600240096039901e-10,8.543923750709150151e-04
3.200640256102439873e-10,1.053822597352019894e-03
3.400680272108839844e-10,1.384287114025150103e-03
3.600720288115250156e-10,1.828091483303989932e-03
3.800760304121650128e-10,2.361126210223960051e-03
4.000800320128050099e-10,2.954160736214720209e-03
4.200840336134450071e-10,3.574430269797380152e-03
4.400880352140859865e-10,4.187427955512229745e-03
4.600920368147259837e-10,4.758803035184169632e-03
4.800960384153660326e-10,5.256259420323080266e-03
5.001000400160059781e-10,5.651348827320559765e-03
5.201040416166469575e-10,5.921058346299160231e-03
5.401080432172870064e-10,6.049103694221850264e-03
5.601120448179269519e-10,6.026855793722999885e-03
5.801160464185670007e-10,5.853848784973249633e-03
6.001200480192079802e-10,5.537840951480060142e-03
6.201240496198480290e-10,5.094424990313479833e-03
6.401280512204879745e-10,4.546209165213559687e-03
6.601320528211280234e-10,3.921614723978389741e-03
6.801360544217690028e-10,3.253368919734659932e-03
7.001400560224089483e-10,2.576113697849389921e-03
7.201440576230489972e-10,1.927486108578569919e-03
7.401480592236899766e-10,1.340649916183979991e-03
7.601520608243300255e-10,8.470846856117559632e-04
7.801560624249699710e-10,4.741095759941320125e-04
8.001600640256100198e-10,2.419543690522179928e-04
8.201640656262509993e-10,1.639550864855240085e-04
8.401680672268910482e-10,2.453659984599910028e-04
8.601720688275309936e-10,4.832695948121809928e-04
8.801760704281710425e-10,8.667402045102299982e-04
9.001800720288120220e-10,1.377462449176250102e-03
9.201840736294519674e-10,1.990737696274559945e-03
9.401880752300919129e-10,2.676820093479140121e-03
9.601920768307320652e-10,3.402506295539590216e-03
9.801960784313730446e-10,4.132889942051129646e-03
1.000200080032010095e-09,4.833183993048239570e-03
1.020204081632650040e-09,5.470511566058860325e-03
1.040208083233289986e-09,6.015569013893059570e-03
1.060212084833929931e-09,6.444073391005679906e-03
1.080216086434570084e-09,6.737919632773649650e-03
1.100220088035210029e-09,6.885989908370309873e-03
1.120224089635849975e-09,6.884577681288709707e-03
1.140228091236489920e-09,6.737410847153860183e-03
1.160232092837130072e-09,6.455280658324980339e-03
1.180236094437779944e-09,6.055304721140590020e-03
1.200240096038420096e-09,5.559871960487759723e-03
1.220244097639060042e-09,4.995334014454700169e-03
1.240248099239699987e-09,4.390520167820780029e-03
1.260252100840339933e-09,3.775161013701590178e-03
1.280256102440980085e-09,3.178309176687260131e-03
1.300260104041620030e-09,2.626801740285360145e-03
1.320264105642259976e-09,2.144156914127629855e-03
1.340268107242899921e-09,1.748915010295989947e-03
1.360272108843540074e-09,1.454643625210650000e-03
1.380276110444180019e-09,1.268635062548489987e-03
1.400280112044819965e-09,1.192299131308209928e-03
1.420284113645459910e-09,1.221130284169579970e-03
1.440288115246100062e-09,1.345253668558619954e-03
1.460292116846740008e-09,1.550210832369810013e-03
1.480296118447379953e-09,1.817972375154129931e-03
1.500300120048019899e-09,2.128113352155629797e-03
1.520304121648660051e-09,2.459079860356629989e-03
1.540308123249299996e-09,2.789472136399830104e-03
1.560312124849939942e-09,3.099270747345110166e-03
1.580316126450580094e-09,3.370937873303580124e-03
1.600320128051220040e-09,3.590334846690699903e-03
1.620324129651859985e-09,3.747409399195069952e-03
1.640328131252499931e-09,3.836620682060440032e-03
1.660332132853140083e-09,3.857086160260560052e-03
1.680336134453780028e-09,3.812450969706560056e-03
1.700340136054419974e-09,3.710496300066219895e-03
1.720344137655059919e-09,3.562517911966899854e-03
1.740348139255700072e-09,3.382518211020629946e-03
1.760352140856340017e-09,3.186264730137329786e-03
1.780356142456979963e-09,2.990273950372220046e-03
1.800360144057619908e-09,2.810781862803419899e-03
1.820364145658260060e-09,2.662761502660180007e-03
1.840368147258900006e-09,2.559043049805970107e-03
1.860372148859539951e-09,2.509584363487559963e-03
1.880376150460180103e-09,2.520929551719230076e-03
1.900380152060820049e-09,2.595881047566809836e-03
1.920384153661459994e-09,2.733397446881790076e-03
1.940388155262109866e-09,2.928715865526790134e-03
1.960392156862749812e-09,3.173684602087179993e-03
1.980396158463390171e-09,3.457280190330109821e-03
2.000400160064030116e-09,3.766273141932959846e-03
2.020404161664670062e-09,4.085999326223889797e-03
2.040408163265310007e-09,4.401189360933459999e-03
2.060412164865949953e-09,4.696806769453640111e-03
2.080416166466589898e-09,4.958846987038260413e-03
2.100420168067229843e-09,5.175053386064419787e-03
2.120424169667870203e-09,5.335512994657569570e-03
2.140428171268510148e-09,5.433103027427840272e-03
2.160432172869150093e-09,5.463769154724789669e-03
2.180436174469790039e-09,5.426626969890400130e-03
2.200440176070429984e-09,5.323888714463469868e-03
2.220444177671069930e-09,5.160627350810719979e-03
2.240448179271709875e-09,4.944398951210259886e-03
2.260452180872349821e-09,4.684751614853179674e-03
2.280456182472990180e-09,4.392654360917749856e-03
2.300460184073630125e-09,4.079882445607139682e-03
2.320464185674270071e-09,3.758396228610779832e-03
2.340468187274910016e-09,3.439749131349480096e-03
2.360472188875549962e-09,3.134556583240359802e-03
2.380476190476189907e-09,2.852052461374660151e-03
2.400480192076829853e-09,2.599752805228160071e-03
2.420484193677469798e-09,2.383239010384589993e-03
2.440488195278110157e-09,2.206064784149689827e-03
2.460492196878750103e-09,2.069783392318569944e-03
2.480496198479390048e-09,1.974084617688259997e-03
2.500500200080029994e-09,1.917024802668420040e-03
2.520504201680669939e-09,1.895328690390980005e-03
2.540508203281309885e-09,1.904738736547440013e-03
2.560512204881949830e-09,1.940386250017850063e-03
2.580516206482590189e-09,1.997159129012849969e-03
2.600520208083230135e-09,2.070042974582399827e-03
2.620524209683870080e-09,2.154415769061029939e-03
2.640528211284510026e-09,2.246280805990190192e-03
2.660532212885149971e-09,2.342427794492099938e-03
2.680536214485789917e-09,2.440517647153030070e-03
2.700540216086429862e-09,2.539092002037269830e-03
2.720544217687069807e-09,2.637513654765789948e-03
2.740548219287720093e-09,2.735848457496370140e-03
2.760552220888360038e-09,2.834702617591419987e-03
2.780556222488999984e-09,2.935031517792360042e-03
2.800560224089639929e-09,3.037937091629239889e-03
2.820564225690279875e-09,3.144470423834480003e-03
2.840568227290919820e-09,3.255454696607209923e-03
2.860572228891560179e-09,3.371341039147679811e-03
2.880576230492200125e-09,3.492106494222020109e-03
2.900580232092840070e-09,3.617199473585260179e-03
2.920584233693480016e-09,3.745534038063289949e-03
2.940588235294119961e-09,3.875530416622949975e-03
2.960592236894759907e-09,4.005195658899620217e-03
2.980596238495399852e-09,4.132235445761240147e-03
3.000600240096039797e-09,4.254186053964750282e-03
3.020604241696680157e-09,4.368554407115790052e-03
3.040608243297320102e-09,4.472954093300869974e-03
3.060612244897960047e-09,4.565226160248329716e-03
3.080616246498599993e-09,4.643535309334320162e-03
3.100620248099239938e-09,4.706434633090120050e-03
3.120624249699879884e-09,4.752895060516349780e-03
3.140628251300519829e-09,4.782298939893640279e-03
3.160632252901160188e-09,4.794400434894430241e-03
3.180636254501800134e-09,4.789258377445269714e-03
3.200640256102440079e-09,4.767149674728560389e-03
3.220644257703080025e-09,4.728473114393449972e-03
3.240648259303719970e-09,4.673654313885339771e-03
3.260652260904359916e-09,4.603062543519279709e-03
3.280656262504999861e-09,4.516949216744029980e-03
3.300660264105639807e-09,4.415416052051010336e-03
3.320664265706280166e-09,4.298418402700130217e-03
3.340668267306920111e-09,4.165806210314629623e-03
3.360672268907560057e-09,4.017401696532779676e-03
3.380676270508200002e-09,3.853109517814250207e-03
3.400680272108839948e-09,3.673051933000250069e-03
3.420684273709479893e-09,3.477718820580949846e-03
3.440688275310119839e-09,3.268120350703430065e-03
3.460692276910760198e-09,3.045928938199150143e-03
3.480696278511400143e-09,2.813596890472429973e-03
3.500700280112040089e-09,2.574436963368819872e-03
3.520704281712689960e-09,2.332654823705729904e-03
3.540708283313329906e-09,2.093325092593109876e-03
3.560712284913969851e-09,1.862306048337679983e-03
3.580716286514609797e-09,1.646091987360899988e-03
3.600720288115250156e-09,1.451606421203420049e-03
3.620724289715890101e-09,1.285943450374149978e-03
3.640728291316530047e-09,1.156068519982579893e-03
3.660732292917169992e-09,1.068493060591419906e-03
3.680736294517809938e-09,1.028920440113100052e-03
3.700740296118449883e-09,1.041755213901219982e-03
3.720744297719089829e-09,1.111088944907150013e-03
3.740748299319730188e-09,1.237359700470950065e-03
3.760752300920370133e-09,1.420790208557739989e-03
3.780756302521010079e-09,1.658052287617639911e-03
3.800760304121650024e-09,1.947307684602769991e-03
3.820764305722289970e-09,2.280435682007319904e-03
3.840768307322929915e-09,2.649841121186630177e-03
3.860772308923569861e-09,3.046269491735720172e-03
3.880776310524209806e-09,3.459002632832460129e-03
3.900780312124849751e-09,3.876555074599879937e-03
3.920784313725489697e-09,4.287044984864420323e-03
3.940788315326129642e-09,4.678645383788399871e-03
3.960792316926769588e-09,5.040038874494039839e-03
3.980796318527410361e-09,5.360854051502570404e-03
4.000800320128050306e-09,5.632062671529569978e-03
4.020804321728690251e-09,5.846318746172460279e-03
4.040808323329330197e-09,5.998223814438300230e-03
4.060812324929970142e-09,6.084506584220890357e-03
4.080816326530610088e-09,6.104109658081309855e-03
4.100820328131250033e-09,6.058180909579219918e-03
4.120824329731889979e-09,5.949971966648389884e-03
4.140828331332529924e-09,5.784650905937740312e-03
4.160832332933169870e-09,5.569040405012420231e-03
4.180836334533809815e-09,5.311296013245070044e-03
4.200840336134449761e-09,5.020541711666850343e-03
4.220844337735089706e-09,4.706481422107800308e-03
4.240848339335740405e-09,4.379005546451699912e-03
4.260852340936369597e-09,4.047810984229669763e-03
4.280856342537010370e-09,3.722051472009730005e-03
4.300860344137660241e-09,3.410032646906249829e-03
4.320864345738300187e-09,3.118963142428010128e-03
4.340868347338940132e-09,2.854769492003379934e-03
4.360872348939580078e-09,2.621978876243429880e-03
4.380876350540220023e-09,2.423670037849390019e-03
4.400880352140859969e-09,2.261489222234370003e-03
4.420884353741499914e-09,2.135724974383790102e-03
4.440888355342139860e-09,2.045433184714290017e-03
4.460892356942779805e-09,1.988602033549070110e-03
4.480896358543419751e-09,1.962345486087359921e-03
4.500900360144059696e-09,1.963113736228329874e-03
4.520904361744699642e-09,1.986909435162450156e-03
4.540908363345339587e-09,2.029499573336630055e-03
4.560912364945980360e-09,2.086614380847159889e-03
4.580916366546620305e-09,2.154126418067389866e-03
4.600920368147260251e-09,2.228204981226979998e-03
4.620924369747900196e-09,2.305442886731240079e-03
4.640928371348540142e-09,2.382954478154899851e-03
4.660932372949180087e-09,2.458445203442250100e-03
4.680936374549820033e-09,2.530254253253459880e-03
4.700940376150459978e-09,2.597372492133220162e-03
4.720944377751099924e-09,2.659438250742910022e-03
4.740948379351739869e-09,2.716713519236290189e-03
4.760952380952379815e-09,2.770042763181990164e-03
4.780956382553019760e-09,2.820796075201669958e-03
4.800960384153659705e-09,2.870797796150370042e-03
4.820964385754299651e-09,2.922241211234479896e-03
4.840968387354939596e-09,2.977589565113120031e-03
4.860972388955580369e-09,3.039463541434480210e-03
4.880976390556220315e-09,3.110515583968099899e-03
4.900980392156860260e-09,3.193292028052400165e-03
4.920984393757500205e-09,3.290084951199459887e-03
4.940988395358140151e-09,3.402776885159320124e-03
4.960992396958780096e-09,3.532682963872079904e-03
4.980996398559420042e-09,3.680396583419599799e-03
5.001000400160059987e-09,3.845646067499240012e-03
5.021004401760699933e-09,4.027170999677110244e-03
5.041008403361339878e-09,4.222627637240159576e-03
5.061012404961989750e-09,4.428533013292999636e-03
5.081016406562629695e-09,4.640256846513430254e-03
5.101020408163269641e-09,4.852069138268479652e-03
5.121024409763910414e-09,5.057249323654309722e-03
5.141028411364550359e-09,5.248260096576609808e-03
5.161032412965190305e-09,5.416985650631210396e-03
5.181036414565830250e-09,5.555030228856050294e-03
5.201040416166470195e-09,5.654068770755639808e-03
5.221044417767110141e-09,5.706237339624400072e-03
5.241048419367750086e-09,5.704547188339579959e-03
5.261052420968390032e-09,5.643303065654060001e-03
5.281056422569029977e-09,5.518503954045150296e-03
5.301060424169669923e-09,5.328203106023669984e-03
5.321064425770309868e-09,5.072804199314639648e-03
5.341068427370949814e-09,4.755271781804210063e-03
5.361072428971589759e-09,4.381236962333829969e-03
5.381076430572229705e-09,3.958983468715289791e-03
5.401080432172869650e-09,3.499304592036079839e-03
5.421084433773509596e-09,3.015227927610860184e-03
5.441088435374150368e-09,2.521611889627049970e-03
5.461092436974790314e-09,2.034625334810529970e-03
5.481096438575430259e-09,1.571128854055200020e-03
5.501100440176070205e-09,1.147982934171750020e-03
5.521104441776710150e-09,7.813138189130139572e-04
5.541108443377350096e-09,4.857721097731390212e-04
5.561112444977990041e-09,2.738216091327350219e-04
5.581116446578629987e-09,1.550963754583960024e-04
5.601120448179269932e-09,1.358622971308060109e-04
5.621124449779909878e-09,2.186156846878240087e-04
5.641128451380549823e-09,4.018455476962759856e-04
5.661132452981189769e-09,6.799911120069660007e-04
5.681136454581829714e-09,1.043455990467219950e-03
5.701140456182469659e-09,1.478746558844950100e-03
5.721144457783109605e-09,1.970694992542430021e-03
5.741148459383750378e-09,2.500966952068159853e-03
5.761152460984390323e-09,3.047897250492790071e-03
5.781156462585030269e-09,3.591298463734830197e-03
5.801160464185670214e-09,4.110620340587430380e-03
5.821164465786310160e-09,4.586394806451959613e-03
5.841168467386960031e-09,5.001300429331909624e-03
5.861172468987599977e-09,5.340926456075980114e-03
5.881176470588239922e-09,5.594439090403509861e-03
5.901180472188879868e-09,5.755070608820399627e-03
5.921184473789519813e-09,5.820403347679459910e-03
5.941188475390159759e-09,5.792431443076219606e-03
5.961192476990799704e-09,5.677395253297520122e-03
5.981196478591439649e-09,5.485395964270250134e-03
6.001200480192079595e-09,5.229810247539700210e-03
6.021204481792720368e-09,4.926536277790560109e-03
6.041208483393360313e-09,4.593112231747589758e-03
6.061212484994000259e-09,4.247755973379809674e-03
6.081216486594640204e-09,3.908379493250209794e-03
6.101220488195280149e-09,3.591633477200189845e-03
6.121224489795920095e-09,3.312035973058289826e-03
6.141228491396560040e-09,3.081234535938510120e-03
6.161232492997199986e-09,2.907443687005609959e-03
6.181236494597839931e-09,2.795089425088860113e-03
6.201240496198479877e-09,2.744680453103769992e-03
6.221244497799119822e-09,2.752912420994659860e-03
6.241248499399759768e-09,2.812997631131619863e-03
6.261252501000399713e-09,2.915199132306799893e-03
6.281256502601039659e-09,3.047535767953189843e-03
6.301260504201679604e-09,3.196614309019660087e-03
6.321264505802320377e-09,3.348536951861449951e-03
6.341268507402960322e-09,3.489827707826210004e-03
6.361272509003600268e-09,3.608319882925350042e-03
6.381276510604240213e-09,3.693949065983959806e-03
6.401280512204880159e-09,3.739401717940959990e-03
6.421284513805520104e-09,3.740578275048510055e-03
6.441288515406160050e-09,3.696841136252230174e-03
6.461292517006799995e-09,3.611031321720360211e-03
6.481296518607439941e-09,3.489252154270689951e-03
6.501300520208079886e-09,3.340433134530240104e-03
6.521304521808719832e-09,3.175701331002120202e-03
6.541308523409359777e-09,3.007600191866729999e-03
6.561312525009999723e-09,2.849205895310410065e-03
6.581316526610639668e-09,2.713198513696420035e-03
6.601320528211279613e-09,2.610948878997050148e-03
6.621324529811920386e-09,2.551681821995219809e-03
6.641328531412560332e-09,2.541772370342169993e-03
6.661332533013210203e-09,2.584223728189350040e-03
6.681336534613850149e-09,2.678364853391929958e-03
6.701340536214490094e-09,2.819791840155330166e-03
6.721344537815130040e-09,3.000561921938929826e-03
6.741348539415769985e-09,3.209632675158200204e-03
6.761352541016409931e-09,3.433522941642249901e-03
6.781356542617049876e-09,3.657157117539500124e-03
6.801360544217689822e-09,3.864841742462900125e-03
6.821364545818329767e-09,4.041313611467849815e-03
6.841368547418969713e-09,4.172792597746940307e-03
6.861372549019609658e-09,4.247970470324599797e-03
6.881376550620249603e-09,4.258869423683309986e-03
6.901380552220890376e-09,4.201510740643859924e-03
6.921384553821530322e-09,4.076344653095909792e-03
6.941388555422170267e-09,3.888406460327279834e-03
6.961392557022810213e-09,3.647180503021180131e-03
6.981396558623450158e-09,3.366171688051860112e-03
7.001400560224090103e-09,3.062202813209599899e-03
7.021404561824730049e-09,2.754473798402190185e-03
7.041408563425369994e-09,2.463434957355199913e-03
7.061412565026009940e-09,2.209539597872180097e-03
7.081416566626649885e-09,2.011950633509849810e-03
7.101420568227289831e-09,1.887280854012229935e-03
7.121424569827929776e-09,1.848446626216849976e-03
7.141428571428569722e-09,1.903709963431639979e-03
7.161432573029209667e-09,2.055974295559359882e-03
7.181436574629849613e-09,2.302385380644669972e-03
7.201440576230490385e-09,2.634271381186420197e-03
7.221444577831130331e-09,3.037436180298799891e-03
7.241448579431770276e-09,3.492798703966619889e-03
7.261452581032410222e-09,3.977349626193580311e-03
7.281456582633050167e-09,4.465376674005660379e-03
7.301460584233690113e-09,4.929892082298410229e-03
7.321464585834330058e-09,5.344181709953669569e-03
7.341468587434970004e-09,5.683385856346069576e-03
7.361472589035609949e-09,5.926017588644550207e-03
7.381476590636249895e-09,6.055325776562900213e-03
7.401480592236899766e-09,6.060417069749940433e-03
7.421484593837539712e-09,5.937063436852580388e-03
7.441488595438179657e-09,5.688138977982160234e-03
7.461492597038820430e-09,5.323650588357579753e-03
7.481496598639460375e-09,4.860350508133579744e-03
7.501500600240100321e-09,4.320943480786360209e-03
7.521504601840740266e-09,3.732925697851999930e-03
7.541508603441380212e-09,3.127115456537519784e-03
7.561512605042020157e-09,2.535955099172859922e-03
7.581516606642660103e-09,1.991679101532379832e-03
7.601520608243300048e-09,1.524453131753430047e-03
7.621524609843939994e-09,1.160592816635039977e-03
7.641528611444579939e-09,9.209684818994239930e-04
7.661532613045219885e-09,8.196933080699410042e-04
7.681536614645859830e-09,8.631775755558060512e-04
7.701540616246499776e-09,1.049611735287280054e-03
7.721544617847139721e-09,1.368917029818929971e-03
7.741548619447779667e-09,1.803175660286440067e-03
7.761552621048419612e-09,2.327524586594480107e-03
7.781556622649059557e-09,2.911469595070850097e-03
7.801560624249699503e-09,3.520550901538460099e-03
7.821564625850339448e-09,4.118269810130530291e-03
7.841568627450979394e-09,4.668169159064089815e-03
7.861572629051619339e-09,5.135949519287179993e-03
7.881576630652259285e-09,5.491499093085660220e-03
7.901580632252899230e-09,5.710718321712819623e-03
7.921584633853539176e-09,5.777030273050419787e-03
7.941588635454180776e-09,5.682484447163050310e-03
7.961592637054820721e-09,5.428383824188210034e-03
