# Time (s),Amplitude (V)
0.000000000000000000e+00,2.031232842578378761e-04
2.000400160064025567e-11,1.967340137543737832e-04
4.000800320128051133e-11,1.895694847112634773e-04
6.001200480192076700e-11,1.822481925871972008e-04
8.001600640256102266e-11,1.753158201651884205e-04
1.000200080032012783e-10,1.692146649613520369e-04
1.200240096038415340e-10,1.642612544821774826e-04
1.400280112044817897e-10,1.606332725372496906e-04
1.600320128051220453e-10,1.583663206510359505e-04
1.800360144057623010e-10,1.573604181343524980e-04
2.000400160064025567e-10,1.573955401937776827e-04
2.200440176070428123e-10,1.581549418312117657e-04
2.400480192076830680e-10,1.592545489589304543e-04
2.600520208083233237e-10,1.602763444451032397e-04
2.800560224089635793e-10,1.608034559885518204e-04
3.000600240096038350e-10,1.604545769174532416e-04
3.200640256102440907e-10,1.589154234511459254e-04
3.400680272108843463e-10,1.559651469373538740e-04
3.600720288115246020e-10,1.514959627593805993e-04
3.800760304121648577e-10,1.455247070066834883e-04
4.000800320128051133e-10,1.381955593314127299e-04
4.200840336134453690e-10,1.297737427995885131e-04
4.400880352140856247e-10,1.206305935535019642e-04
4.600920368147258803e-10,1.112209488622206433e-04
4.800960384153661360e-10,1.020542975183984225e-04
5.001000400160063916e-10,9.366154118812157557e-05
5.201040416166466473e-10,8.655950447979464488e-05
5.401080432172869030e-10,8.121548748732565395e-05
5.601120448179271586e-10,7.801416780894042445e-05
5.801160464185674143e-10,7.722902865747862744e-05
6.001200480192076700e-10,7.900022347603121451e-05
6.201240496198479256e-10,8.332040150761908521e-05
6.401280512204881813e-10,9.002953633919740764e-05
6.601320528211284370e-10,9.881924970093488659e-05
6.801360544217686926e-10,1.092465390075466079e-04
7.001400560224089483e-10,1.207562346216851923e-04
7.201440576230492040e-10,1.327109669462864358e-04
7.401480592236894596e-10,1.444269474090270600e-04
7.601520608243297153e-10,1.552134902889565349e-04
7.801560624249699710e-10,1.644139473721833598e-04
8.001600640256102266e-10,1.714456106110738792e-04
8.201640656262504823e-10,1.758361670640532534e-04
8.401680672268907380e-10,1.772544645204524386e-04
8.601720688275309936e-10,1.755336558231504669e-04
8.801760704281712493e-10,1.706852173602076963e-04
9.001800720288115050e-10,1.629028578490765303e-04
9.201840736294517606e-10,1.525559170720114485e-04
9.401880752300919129e-10,1.401724665711595141e-04
9.601920768307322720e-10,1.264129295234815232e-04
9.801960784313726310e-10,1.120355994894725430e-04
1.000200080032012783e-09,9.785592421706925368e-05
1.020204081632652936e-09,8.470180231092903878e-05
1.040208083233293295e-09,7.336739451098443158e-05
1.060212084833933654e-09,6.456806212729379732e-05
1.080216086434573806e-09,5.889900572875372733e-05
1.100220088035213958e-09,5.679998909146648169e-05
1.120224089635854317e-09,5.852820693629767317e-05
1.140228091236494676e-09,6.414090846327990983e-05
1.160232092837134829e-09,7.348884742990139654e-05
1.180236094437774981e-09,8.622102439779102490e-05
1.200240096038415340e-09,1.018005523766721477e-04
1.220244097639055699e-09,1.195308497651466248e-04
1.240248099239695851e-09,1.385907801929617082e-04
1.260252100840336004e-09,1.580768511151576768e-04
1.280256102440976363e-09,1.770501809153882686e-04
1.300260104041616722e-09,1.945856709004169488e-04
1.320264105642256874e-09,2.098206895398593949e-04
1.340268107242897026e-09,2.220005990110653885e-04
1.360272108843537385e-09,2.305186271715620573e-04
1.380276110444177744e-09,2.349479015646347140e-04
1.400280112044817897e-09,2.350638979701282774e-04
1.420284113645458049e-09,2.308560893958902537e-04
1.440288115246098408e-09,2.225281818024836794e-04
1.460292116846738767e-09,2.104869560369203286e-04
1.480296118447378919e-09,1.953203654557131297e-04
1.500300120048019072e-09,1.777661298435634645e-04
1.520304121648659431e-09,1.586725851817118724e-04
1.540308123249299790e-09,1.389539665118565874e-04
1.560312124849939942e-09,1.195425944476238985e-04
1.580316126450580094e-09,1.013405888688217760e-04
1.600320128051220453e-09,8.517373817686756533e-05
1.620324129651860812e-09,7.175000987363531167e-05
1.640328131252500965e-09,6.162490725645270882e-05
1.660332132853141117e-09,5.517547467422544198e-05
1.680336134453781476e-09,5.258425384811407513e-05
1.700340136054421835e-09,5.383392545142240242e-05
1.720344137655061987e-09,5.871276639437359867e-05
1.740348139255702140e-09,6.683044876094585242e-05
1.760352140856342499e-09,7.764313558605218026e-05
1.780356142456982858e-09,9.048632388684556683e-05
1.800360144057623010e-09,1.046134747508965909e-04
1.820364145658263162e-09,1.192381763628294774e-04
1.840368147258903521e-09,1.335774241970325742e-04
1.860372148859543880e-09,1.468935810209066168e-04
1.880376150460183826e-09,1.585326974824826241e-04
1.900380152060824185e-09,1.679571234340878120e-04
1.920384153661464544e-09,1.747707047889986284e-04
1.940388155262104903e-09,1.787353180993343240e-04
1.960392156862745262e-09,1.797780174713718010e-04
1.980396158463385208e-09,1.779886247009585963e-04
2.000400160064025567e-09,1.736081507233060779e-04
2.020404161664665926e-09,1.670089620454849534e-04
2.040408163265305871e-09,1.586680693336919650e-04
2.060412164865946230e-09,1.491352903102714832e-04
2.080416166466586589e-09,1.389983045732857676e-04
2.100420168067226948e-09,1.288467595708654126e-04
2.120424169667867307e-09,1.192375978718414277e-04
2.140428171268507253e-09,1.106636570130159399e-04
2.160432172869147612e-09,1.035273532119964621e-04
2.180436174469787971e-09,9.812091485868810299e-05
2.200440176070427916e-09,9.461420284464518680e-05
2.220444177671068276e-09,9.305066914435940022e-05
2.240448179271708635e-09,9.335149250118124342e-05
2.260452180872348994e-09,9.532742184331416315e-05
2.280456182472989353e-09,9.869738492812631385e-05
2.300460184073629298e-09,1.031125101160010468e-04
2.320464185674269657e-09,1.081838875483843738e-04
2.340468187274910016e-09,1.135121813171142025e-04
2.360472188875549962e-09,1.187171088844826699e-04
2.380476190476190321e-09,1.234648331890169889e-04
2.400480192076830680e-09,1.274914641203223368e-04
2.420484193677471039e-09,1.306211295688833275e-04
2.440488195278111398e-09,1.327774354583710148e-04
2.460492196878751344e-09,1.339875666985460706e-04
2.480496198479391703e-09,1.343787600760505403e-04
2.500500200080032062e-09,1.341673761840367796e-04
2.520504201680672007e-09,1.336412799613060536e-04
2.540508203281312366e-09,1.331366785272465765e-04
2.560512204881952725e-09,1.330109335854092313e-04
2.580516206482593084e-09,1.336131408004863244e-04
2.600520208083233443e-09,1.352544329369796585e-04
2.620524209683873389e-09,1.381800065360606281e-04
2.640528211284513748e-09,1.425447901711248029e-04
2.660532212885154107e-09,1.483944700732021135e-04
2.680536214485794052e-09,1.556532776440595531e-04
2.700540216086434412e-09,1.641195412129868125e-04
2.720544217687074771e-09,1.734695350412989335e-04
2.740548219287715130e-09,1.832696499087253165e-04
2.760552220888355489e-09,1.929963920478520209e-04
2.780556222488995434e-09,2.020632218555579521e-04
2.800560224089635793e-09,2.098528007542351187e-04
2.820564225690276152e-09,2.157528509217427801e-04
2.840568227290916098e-09,2.191935709818123548e-04
2.860572228891556457e-09,2.196844078840572514e-04
2.880576230492196816e-09,2.168479709425030668e-04
2.900580232092837175e-09,2.104489906739063685e-04
2.920584233693477534e-09,2.004164673201746366e-04
2.940588235294117480e-09,1.868575089604948601e-04
2.960592236894757839e-09,1.700618074326241762e-04
2.980596238495398198e-09,1.504962167767510809e-04
3.000600240096038143e-09,1.287894543129841814e-04
3.020604241696678502e-09,1.057075069903721116e-04
3.040608243297318861e-09,8.212086288026709585e-05
3.060612244897959220e-09,5.896516841649661859e-05
3.080616246498599579e-09,3.719730804903887658e-05
3.100620248099239525e-09,1.774919089614366213e-05
3.120624249699879884e-09,1.481691328687572670e-06
3.140628251300520243e-09,-1.085878311139718259e-05
3.160632252901160188e-09,-1.867873506643185247e-05
3.180636254501800547e-09,-2.156891577898424861e-05
3.200640256102440907e-09,-1.932680774230394221e-05
3.220644257703081266e-09,-1.196896650678736661e-05
3.240648259303721625e-09,2.675230264062211935e-07
3.260652260904361570e-09,1.693463542601395487e-05
3.280656262505001929e-09,3.739360124485517167e-05
3.300660264105642288e-09,6.084469828131416831e-05
3.320664265706282234e-09,8.636510297777457280e-05
3.340668267306922593e-09,1.129528289155006502e-04
3.360672268907562952e-09,1.395744489172791119e-04
3.380676270508203311e-09,1.652140934540000528e-04
3.400680272108843670e-09,1.889211524247318694e-04
3.420684273709483615e-09,2.098541836531769627e-04
3.440688275310123975e-09,2.273187453492687493e-04
3.460692276910764334e-09,2.407972092466687170e-04
3.480696278511404279e-09,2.499690570052115371e-04
3.500700280112044638e-09,2.547206895991328975e-04
3.520704281712684997e-09,2.551443580773025727e-04
3.540708283313325356e-09,2.515264217026851046e-04
3.560712284913965715e-09,2.443257224284739655e-04
3.580716286514605661e-09,2.341434002630581014e-04
3.600720288115246020e-09,2.216859323628132599e-04
3.620724289715886379e-09,2.077235341859531652e-04
3.640728291316526324e-09,1.930462941846700813e-04
3.660732292917166683e-09,1.784205117206234651e-04
3.680736294517807043e-09,1.645476663304886648e-04
3.700740296118447402e-09,1.520282682406148486e-04
3.720744297719087761e-09,1.413325360334690035e-04
3.740748299319727706e-09,1.327794356080360218e-04
3.760752300920367652e-09,1.265251191440578727e-04
3.780756302521008424e-09,1.225612524400794274e-04
3.800760304121648370e-09,1.207231455373599440e-04
3.820764305722289142e-09,1.207070379207801175e-04
3.840768307322929088e-09,1.220953680762434370e-04
3.860772308923569033e-09,1.243884074628658998e-04
3.880776310524209806e-09,1.270402864695615360e-04
3.900780312124849751e-09,1.294972043996898655e-04
3.920784313725490524e-09,1.312355098604722282e-04
3.940788315326130470e-09,1.317973674885798620e-04
3.960792316926770415e-09,1.308218892494977272e-04
3.980796318527411188e-09,1.280698934687422928e-04
4.000800320128051133e-09,1.234408451116015193e-04
4.020804321728691079e-09,1.169810034043778643e-04
4.040808323329331851e-09,1.088823297919580438e-04
4.060812324929971797e-09,9.947225952342590119e-05
4.080816326530611742e-09,8.919498166528794431e-05
4.100820328131252515e-09,7.858537350689329538e-05
4.120824329731892460e-09,6.823716704756771782e-05
4.140828331332533233e-09,5.876726256256197852e-05
4.160832332933173179e-09,5.077832775570171648e-05
4.180836334533813124e-09,4.482191799925320949e-05
4.200840336134453897e-09,4.136431835396330736e-05
4.220844337735093842e-09,4.075714384501946262e-05
4.240848339335734615e-09,4.321445080720617729e-05
4.260852340936374560e-09,4.879772589172649545e-05
4.280856342537014506e-09,5.740965342240368749e-05
4.300860344137655278e-09,6.879704364906119802e-05
4.320864345738295224e-09,8.256276457334952407e-05
4.340868347338935169e-09,9.818599009396247355e-05
4.360872348939575942e-09,1.150495883318233251e-04
4.380876350540215887e-09,1.324730547811804366e-04
4.400880352140855833e-09,1.497490699328611434e-04
4.420884353741496606e-09,1.661815492312207520e-04
4.440888355342136551e-09,1.811229670253036424e-04
4.460892356942777324e-09,1.940087805618681690e-04
4.480896358543417269e-09,2.043869524018573349e-04
4.500900360144057215e-09,2.119408597975381593e-04
4.520904361744697987e-09,2.165042704927780371e-04
4.540908363345337933e-09,2.180675331836892683e-04
4.560912364945978705e-09,2.167746499649490311e-04
4.580916366546618651e-09,2.129114370194938979e-04
4.600920368147258596e-09,2.068855069138410036e-04
4.620924369747899369e-09,1.991992901166819816e-04
4.640928371348539315e-09,1.904177262301558627e-04
4.660932372949179260e-09,1.811325724980988676e-04
4.680936374549820033e-09,1.719254795952770032e-04
4.700940376150459978e-09,1.633320603483902399e-04
4.720944377751099924e-09,1.558091211147011389e-04
4.740948379351740696e-09,1.497070409853866425e-04
4.760952380952380642e-09,1.452489812245719202e-04
4.780956382553021414e-09,1.425182038174792039e-04
4.800960384153661360e-09,1.414542970096197569e-04
4.820964385754301305e-09,1.418585752282864947e-04
4.840968387354942078e-09,1.434083717205364926e-04
4.860972388955582023e-09,1.456794067414106386e-04
4.880976390556222796e-09,1.481749236699275935e-04
4.900980392156862742e-09,1.503598689735402344e-04
4.920984393757502687e-09,1.516980742868228379e-04
4.940988395358143460e-09,1.516901991806087261e-04
4.960992396958783405e-09,1.499101238476499153e-04
4.980996398559423351e-09,1.460375468315700540e-04
5.001000400160064123e-09,1.398847411320519195e-04
5.021004401760704069e-09,1.314157419279404586e-04
5.041008403361344014e-09,1.207566630787727097e-04
5.061012404961984787e-09,1.081963436781060398e-04
5.081016406562624732e-09,9.417708168644352827e-05
5.101020408163265505e-09,7.927578737694683454e-05
5.121024409763905450e-09,6.417645195613362727e-05
5.141028411364545396e-09,4.963534383121510831e-05
5.161032412965186169e-09,3.644078655485308613e-05
5.181036414565826114e-09,2.536971261303821673e-05
5.201040416166466887e-09,1.714340571264179815e-05
5.221044417767106832e-09,1.238492767890672720e-05
5.241048419367746778e-09,1.158066870819335764e-05
5.261052420968387550e-09,1.504826372566120832e-05
5.281056422569027496e-09,2.291279306546570546e-05
5.301060424169667441e-09,3.509274999447285293e-05
5.321064425770308214e-09,5.129673454613123445e-05
5.341068427370948159e-09,7.103125151734733240e-05
5.361072428971588105e-09,9.361938256144541220e-05
5.381076430572228878e-09,1.182295019481175336e-04
5.401080432172868823e-09,1.439126463248596537e-04
5.421084433773509596e-09,1.696466620948082005e-04
5.441088435374149541e-09,1.943848672535662442e-04
5.461092436974789487e-09,2.171066996315480129e-04
5.481096438575430259e-09,2.368676956518987232e-04
5.501100440176070205e-09,2.528461605104965885e-04
5.521104441776710977e-09,2.643840516552797663e-04
5.541108443377350923e-09,2.710198941042019733e-04
5.561112444977990868e-09,2.725119624633673258e-04
5.581116446578631641e-09,2.688504778175152660e-04
5.601120448179271586e-09,2.602581498788161460e-04
5.621124449779911532e-09,2.471790140397326870e-04
5.641128451380552305e-09,2.302561353344987878e-04
5.661132452981192250e-09,2.102993427352476807e-04
5.681136454581832196e-09,1.882446853637231399e-04
5.701140456182472968e-09,1.651077383417669882e-04
5.721144457783112914e-09,1.419332064928215239e-04
5.741148459383753686e-09,1.197434617731264864e-04
5.761152460984393632e-09,9.948869532683504344e-05
5.781156462585033577e-09,8.200126550459815498e-05
5.801160464185674350e-09,6.795658511189668930e-05
5.821164465786314295e-09,5.784252819858618720e-05
5.841168467386955068e-09,5.193886931728368872e-05
5.861172468987595014e-09,5.030772246356164993e-05
5.881176470588234959e-09,5.279535310649492914e-05
5.901180472188875732e-09,5.904512753881673503e-05
5.921184473789515677e-09,6.852077256263340176e-05
5.941188475390155623e-09,8.053857738182394537e-05
5.961192476990796395e-09,9.430670762551410788e-05
5.981196478591436341e-09,1.089694431795742763e-04
6.001200480192076286e-09,1.236539155709460340e-04
6.021204481792717059e-09,1.375168187158661416e-04
6.041208483393357004e-09,1.497886031074983871e-04
6.061212484993997777e-09,1.598128345039139225e-04
6.081216486594637722e-09,1.670786930182443283e-04
6.101220488195277668e-09,1.712449895863757637e-04
6.121224489795918441e-09,1.721545608166155509e-04
6.141228491396558386e-09,1.698384425800377319e-04
6.161232492997199159e-09,1.645097870099288451e-04
6.181236494597839104e-09,1.565480454575627961e-04
6.201240496198479050e-09,1.464744607364762137e-04
6.221244497799119822e-09,1.349203674749643194e-04
6.241248499399759768e-09,1.225901653656396423e-04
6.261252501000399713e-09,1.102210876221699912e-04
6.281256502601040486e-09,9.854202340801564435e-05
6.301260504201680431e-09,8.823366267372137798e-05
6.321264505802320377e-09,7.989211617342215999e-05
6.341268507402961150e-09,7.399793085037310360e-05
6.361272509003601095e-09,7.089208612644813461e-05
6.381276510604241868e-09,7.076014021083027134e-05
6.401280512204881813e-09,7.362522197274297571e-05
6.421284513805521759e-09,7.935006060885942049e-05
6.441288515406162531e-09,8.764774093818254947e-05
6.461292517006802477e-09,9.810039493406881865e-05
6.481296518607443249e-09,1.101846163222815276e-04
6.501300520208083195e-09,1.233020375483372892e-04
6.521304521808723140e-09,1.368132552873124817e-04
6.541308523409363913e-09,1.500731444152987549e-04
6.561312525010003858e-09,1.624655672089063191e-04
6.581316526610643804e-09,1.734355641972659418e-04
6.601320528211284577e-09,1.825172988573114442e-04
6.621324529811924522e-09,1.893563076272528891e-04
6.641328531412564468e-09,1.937249618032572810e-04
6.661332533013205240e-09,1.955304570979527433e-04
6.681336534613845186e-09,1.948150855750461379e-04
6.701340536214485958e-09,1.917489877158713805e-04
6.721344537815125904e-09,1.866160041205700319e-04
6.741348539415765849e-09,1.797936231232505127e-04
6.761352541016406622e-09,1.717283317473022159e-04
6.781356542617046567e-09,1.629079064725410218e-04
6.801360544217687340e-09,1.538323157851702978e-04
6.821364545818327286e-09,1.449849426369425893e-04
6.841368547418967231e-09,1.368057717825518099e-04
6.861372549019608004e-09,1.296680302919167810e-04
6.881376550620247949e-09,1.238595304469230205e-04
6.901380552220887895e-09,1.195696583910984558e-04
6.921384553821528667e-09,1.168825985518701468e-04
6.941388555422168613e-09,1.157770046110600550e-04
6.961392557022808558e-09,1.161319453688709714e-04
6.981396558623449331e-09,1.177385906507499793e-04
7.001400560224089276e-09,1.203167793047676948e-04
7.021404561824730049e-09,1.235353463980108635e-04
7.041408563425369994e-09,1.270348942423068215e-04
7.061412565026009940e-09,1.304515815980542644e-04
7.081416566626650713e-09,1.334404820072414895e-04
7.101420568227290658e-09,1.356971251586288479e-04
7.121424569827931431e-09,1.369759788498800394e-04
7.141428571428571376e-09,1.371048431669367768e-04
7.161432573029211322e-09,1.359943986755475845e-04
7.181436574629852094e-09,1.336424593642864694e-04
7.201440576230492040e-09,1.301328095074525055e-04
7.221444577831131985e-09,1.256288314457394033e-04
7.241448579431772758e-09,1.203624388846567502e-04
7.261452581032412703e-09,1.146190996510697258e-04
7.281456582633052649e-09,1.087199475638999307e-04
7.301460584233693421e-09,1.030021333199247893e-04
7.321464585834333367e-09,9.779864142738722572e-05
7.341468587434974140e-09,9.341880115074380089e-05
7.361472589035614085e-09,9.013064574909028742e-05
7.381476590636254031e-09,8.814613210862950262e-05
7.401480592236894803e-09,8.761003230061119740e-05
7.421484593837534749e-09,8.859306318348173187e-05
7.441488595438175521e-09,9.108954587978295337e-05
7.461492597038815467e-09,9.501960127948666957e-05
7.481496598639455412e-09,1.002356084901848257e-04
7.501500600240095358e-09,1.065323975030310768e-04
7.521504601840735303e-09,1.136604306338531543e-04
7.541508603441376903e-09,1.213410622362708676e-04
7.561512605042016849e-09,1.292828620366477253e-04
7.581516606642656794e-09,1.371979495570730615e-04
7.601520608243296739e-09,1.448173165991509953e-04
7.621524609843936685e-09,1.519042085674413543e-04
7.641528611444578285e-09,1.582647864489677449e-04
7.661532613045218230e-09,1.637554889833520394e-04
7.681536614645858176e-09,1.682867456266287664e-04
7.701540616246498121e-09,1.718229400631752753e-04
7.721544617847138067e-09,1.743787750638299734e-04
7.741548619447779667e-09,1.760124262846665504e-04
7.761552621048419612e-09,1.768160800957494188e-04
7.781556622649059557e-09,1.769046157067292254e-04
7.801560624249699503e-09,1.764033044552375490e-04
7.821564625850339448e-09,1.754354523879525279e-04
7.841568627450981048e-09,1.741109031861191544e-04
7.861572629051620994e-09,1.725162481145750277e-04
7.881576630652260939e-09,1.707074629125650549e-04
7.901580632252900885e-09,1.687055168864825953e-04
7.921584633853540830e-09,1.664952884196054027e-04
7.941588635454180776e-09,1.640278874775334044e-04
7.961592637054822375e-09,1.612262446555742465e-04
