# Time (s),Amplitude (V)
0.000000000000000000e+00,1.055407821537684249e-04
2.000400160064025567e-11,9.117200701972835925e-05
4.000800320128051133e-11,7.454112117419257736e-05
6.001200480192076700e-11,5.655955392134717736e-05
8.001600640256102266e-11,3.822011003501535700e-05
1.000200080032012783e-10,2.054161288383820201e-05
1.200240096038415340e-10,4.511823547504481514e-06
1.400280112044817897e-10,-8.968120639322644763e-06
1.600320128051220453e-10,-1.913457575739977475e-05
1.800360144057623010e-10,-2.540465200183014300e-05
2.000400160064025567e-10,-2.740937364711819785e-05
2.200440176070428123e-10,-2.501481822077641264e-05
2.400480192076830680e-10,-1.833000015041283344e-05
2.600520208083233237e-10,-7.701023561971175646e-06
2.800560224089635793e-10,6.308181630941697006e-06
3.000600240096038350e-10,2.294745272915173329e-05
3.200640256102440907e-10,4.132251646766401374e-05
3.400680272108843463e-10,6.044523138768241957e-05
3.600720288115246020e-10,7.928907106239978578e-05
3.800760304121648577e-10,9.684666544747847991e-05
4.000800320128051133e-10,1.121860990931955357e-04
4.200840336134453690e-10,1.245027385753734624e-04
4.400880352140856247e-10,1.331636232283001022e-04
4.600920368147258803e-10,1.377418879475901926e-04
4.800960384153661360e-10,1.380392691182380678e-04
5.001000400160063916e-10,1.340954404893227069e-04
5.201040416166466473e-10,1.261836942273784998e-04
5.401080432172869030e-10,1.147932782460176675e-04
5.601120448179271586e-10,1.005994774039514848e-04
5.801160464185674143e-10,8.442323756856697924e-05
6.001200480192076700e-10,6.718273598424928834e-05
6.201240496198479256e-10,4.983976330835721707e-05
6.401280512204881813e-10,3.334407497511676367e-05
6.601320528211284370e-10,1.857897517156649410e-05
6.801360544217686926e-10,6.311309680618091373e-06
7.001400560224089483e-10,-2.851230367701995975e-06
7.201440576230492040e-10,-8.493036627321901136e-06
7.401480592236894596e-10,-1.041187509216722978e-05
7.601520608243297153e-10,-8.627370072775262619e-06
7.801560624249699710e-10,-3.376274085230419311e-06
8.001600640256102266e-10,4.905096893186616931e-06
8.201640656262504823e-10,1.561012273739065292e-05
8.401680672268907380e-10,2.800100294164017866e-05
8.601720688275309936e-10,4.125533619541152722e-05
8.801760704281712493e-10,5.451731431084511212e-05
9.001800720288115050e-10,6.695042742879976617e-05
9.201840736294517606e-10,7.778850216452290359e-05
9.401880752300919129e-10,8.638200946504372613e-05
9.601920768307322720e-10,9.223687702570795973e-05
9.801960784313726310e-10,9.504350383351777140e-05
1.000200080032012783e-09,9.469427360447274880e-05
1.020204081632652936e-09,9.128856328563638020e-05
1.040208083233293295e-09,8.512500018548885402e-05
1.060212084833933654e-09,7.668149109400864587e-05
1.080216086434573806e-09,6.658428269261454098e-05
1.100220088035213958e-09,5.556797055981362108e-05
1.120224089635854317e-09,4.442891479701098533e-05
1.140228091236494676e-09,3.397491157233990057e-05
1.160232092837134829e-09,2.497418856280139514e-05
1.180236094437774981e-09,1.810682568547390044e-05
1.200240096038415340e-09,1.392154912237410198e-05
1.220244097639055699e-09,1.280051617804741067e-05
1.240248099239695851e-09,1.493422133122978699e-05
1.260252100840336004e-09,2.030803966804597410e-05
1.280256102440976363e-09,2.870122003003435543e-05
1.300260104041616722e-09,3.969838927369331557e-05
1.320264105642256874e-09,5.271287633426481774e-05
1.340268107242897026e-09,6.702045562610087269e-05
1.360272108843537385e-09,8.180148623269960966e-05
1.380276110444177744e-09,9.618892357308650638e-05
1.400280112044817897e-09,1.093193334738494336e-04
1.420284113645458049e-09,1.203838651737489975e-04
1.440288115246098408e-09,1.286761496200784652e-04
1.460292116846738767e-09,1.336342812094820393e-04
1.480296118447378919e-09,1.348744027083999622e-04
1.500300120048019072e-09,1.322139220198362156e-04
1.520304121648659431e-09,1.256830145433312162e-04
1.540308123249299790e-09,1.155237679707465102e-04
1.560312124849939942e-09,1.021770648151919719e-04
1.580316126450580094e-09,8.625802712226737670e-05
1.600320128051220453e-09,6.852152379208686938e-05
1.620324129651860812e-09,4.981982324999097627e-05
1.640328131252500965e-09,3.105492821501388894e-05
1.660332132853141117e-09,1.312842831063785387e-05
1.680336134453781476e-09,-3.108166947375137136e-06
1.700340136054421835e-09,-1.689970434773214897e-05
1.720344137655061987e-09,-2.762758870455900032e-05
1.740348139255702140e-09,-3.484161311272439569e-05
1.760352140856342499e-09,-3.828164289924179935e-05
1.780356142456982858e-09,-3.788800353265769412e-05
1.800360144057623010e-09,-3.380011220036445240e-05
1.820364145658263162e-09,-2.634360422236582414e-05
1.840368147258903521e-09,-1.600689553666813272e-05
1.860372148859543880e-09,-3.408749257549916162e-06
1.880376150460183826e-09,1.074105998276265434e-05
1.900380152060824185e-09,2.568549695040973961e-05
1.920384153661464544e-09,4.066570734457513589e-05
1.940388155262104903e-09,5.496535663940407086e-05
1.960392156862745262e-09,6.795117628111141264e-05
1.980396158463385208e-09,7.910729509974639691e-05
2.000400160064025567e-09,8.806134844027100348e-05
2.020404161664665926e-09,9.460089241624918400e-05
2.040408163265305871e-09,9.867927203058923867e-05
2.060412164865946230e-09,1.004107606845599881e-04
2.080416166466586589e-09,1.000554631302472093e-04
2.100420168067226948e-09,9.799511233148521818e-05
2.120424169667867307e-09,9.470145357773261067e-05
2.140428171268507253e-09,9.069936198269473444e-05
2.160432172869147612e-09,8.652715459717817855e-05
2.180436174469787971e-09,8.269671684898199818e-05
2.200440176070427916e-09,7.965605574507057167e-05
2.220444177671068276e-09,7.775672041366292085e-05
2.240448179271708635e-09,7.722820553431538368e-05
2.260452180872348994e-09,7.816099588273800729e-05
2.280456182472989353e-09,8.049934964215739279e-05
2.300460184073629298e-09,8.404428970365171708e-05
2.320464185674269657e-09,8.846661537260526562e-05
2.340468187274910016e-09,9.332910294150102693e-05
2.360472188875549962e-09,9.811647271968550600e-05
2.380476190476190321e-09,1.022711992923789291e-04
2.400480192076830680e-09,1.052328622061142829e-04
2.420484193677471039e-09,1.064784996359449958e-04
2.440488195278111398e-09,1.055613524592032633e-04
2.460492196878751344e-09,1.021454752191905695e-04
2.480496198479391703e-09,9.603393816707367044e-05
2.500500200080032062e-09,8.718873551186604527e-05
2.520504201680672007e-09,7.574102491332866194e-05
2.540508203281312366e-09,6.199092045171175191e-05
2.560512204881952725e-09,4.639670874769344941e-05
2.580516206482593084e-09,2.955401541759031567e-05
2.600520208083233443e-09,1.216607586130030947e-05
2.620524209683873389e-09,-4.993178373789242545e-06
2.640528211284513748e-09,-2.112105327530325655e-05
2.660532212885154107e-09,-3.543056079835007062e-05
2.680536214485794052e-09,-4.719476796251927657e-05
2.700540216086434412e-09,-5.578836639384416717e-05
2.720544217687074771e-09,-6.072395906190956817e-05
2.740548219287715130e-09,-6.168087146557233195e-05
2.760552220888355489e-09,-5.852473946109248716e-05
2.780556222488995434e-09,-5.131667798980735706e-05
2.800560224089635793e-09,-4.031146020688144711e-05
2.820564225690276152e-09,-2.594479653488812474e-05
2.840568227290916098e-09,-8.810457459028347356e-06
2.860572228891556457e-09,1.037140768595908795e-05
2.880576230492196816e-09,3.079287834070068108e-05
2.900580232092837175e-09,5.160150901137048403e-05
2.920584233693477534e-09,7.194565643194317510e-05
2.940588235294117480e-09,9.101921617824504081e-05
2.960592236894757839e-09,1.081031466869207937e-04
2.980596238495398198e-09,1.226013675992554657e-04
3.000600240096038143e-09,1.340689746336125765e-04
3.020604241696678502e-09,1.422311925477046015e-04
3.040608243297318861e-09,1.469920613319956122e-04
3.060612244897959220e-09,1.484324829801953794e-04
3.080616246498599579e-09,1.467979078810970127e-04
3.100620248099239525e-09,1.424765708295239988e-04
3.120624249699879884e-09,1.359697579895414662e-04
3.140628251300520243e-09,1.278560627897674213e-04
3.160632252901160188e-09,1.187519415295888606e-04
3.180636254501800547e-09,1.092710870394070178e-04
3.200640256102440907e-09,9.998518869120125337e-05
3.220644257703081266e-09,9.138853684840161635e-05
3.240648259303721625e-09,8.386866685402582003e-05
3.260652260904361570e-09,7.768483871320935397e-05
3.280656262505001929e-09,7.295563901166599160e-05
3.300660264105642288e-09,6.965640336949311979e-05
3.320664265706282234e-09,6.762652780623498966e-05
3.340668267306922593e-09,6.658610520721860407e-05
3.360672268907562952e-09,6.616072817131788363e-05
3.380676270508203311e-09,6.591277904051268404e-05
3.400680272108843670e-09,6.537711433486170873e-05
3.420684273709483615e-09,6.409876994633190595e-05
3.440688275310123975e-09,6.167018277427384907e-05
3.460692276910764334e-09,5.776545216736945132e-05
3.480696278511404279e-09,5.216934884398246317e-05
3.500700280112044638e-09,4.479910840891143480e-05
3.520704281712684997e-09,3.571750066463009901e-05
3.540708283313325356e-09,2.513621633574116533e-05
3.560712284913965715e-09,1.340922530649055615e-05
3.580716286514605661e-09,1.016396841889324453e-06
3.600720288115246020e-09,-1.146170715396320341e-05
3.620724289715886379e-09,-2.337638873093833623e-05
3.640728291316526324e-09,-3.404876706430496063e-05
3.660732292917166683e-09,-4.281081852690859086e-05
3.680736294517807043e-09,-4.904697976142345845e-05
3.700740296118447402e-09,-5.223373150242730217e-05
3.720744297719087761e-09,-5.197468242769378910e-05
3.740748299319727706e-09,-4.802892789721786458e-05
3.760752300920367652e-09,-4.033085265767438738e-05
3.780756302521008424e-09,-2.900005550633263040e-05
3.800760304121648370e-09,-1.434066642592630109e-05
3.820764305722289142e-09,3.170033431198746086e-06
3.840768307322929088e-09,2.290313054629040926e-05
3.860772308923569033e-09,4.410856192459514417e-05
3.880776310524209806e-09,6.595284053303523085e-05
3.900780312124849751e-09,8.756185802959070750e-05
3.920784313725490524e-09,1.080662862277557762e-04
3.940788315326130470e-09,1.266469351864222593e-04
3.960792316926770415e-09,1.425774221280337139e-04
3.980796318527411188e-09,1.552616619279325943e-04
4.000800320128051133e-09,1.642639971819668783e-04
4.020804321728691079e-09,1.693302251616116930e-04
4.040808323329331851e-09,1.703983234972024049e-04
4.060812324929971797e-09,1.675982929867136158e-04
4.080816326530611742e-09,1.612411868946896760e-04
4.100820328131252515e-09,1.517980418130098679e-04
4.120824329731892460e-09,1.398700262723313165e-04
4.140828331332533233e-09,1.261516432840922733e-04
4.160832332933173179e-09,1.113892303054903093e-04
4.180836334533813124e-09,9.633727017095595634e-05
4.200840336134453897e-09,8.171514313633546599e-05
4.220844337735093842e-09,6.816690660662778098e-05
4.240848339335734615e-09,5.622648841262910680e-05
4.260852340936374560e-09,4.629033433742942450e-05
4.280856342537014506e-09,3.859908246721717196e-05
4.300860344137655278e-09,3.322927479850948515e-05
4.320864345738295224e-09,3.009549504513382847e-05
4.340868347338935169e-09,2.896267895452951863e-05
4.360872348939575942e-09,2.946771906770240607e-05
4.380876350540215887e-09,3.114891794575718755e-05
4.400880352140855833e-09,3.348136705434681708e-05
4.420884353741496606e-09,3.591597173089434932e-05
4.440888355342136551e-09,3.791962746164920825e-05
4.460892356942777324e-09,3.901399187708219819e-05
4.480896358543417269e-09,3.881039371138977326e-05
4.500900360144057215e-09,3.703866808737604359e-05
4.520904361744697987e-09,3.356809123018035984e-05
4.540908363345337933e-09,2.841908316887527332e-05
4.560912364945978705e-09,2.176492344100427369e-05
4.580916366546618651e-09,1.392334669580448123e-05
4.600920368147258596e-09,5.338514110319604533e-06
4.620924369747899369e-09,-3.445545893588379383e-06
4.640928371348539315e-09,-1.181840460372986126e-05
4.660932372949179260e-09,-1.914155537833980204e-05
4.680936374549820033e-09,-2.478923627972865477e-05
4.700940376150459978e-09,-2.818923958200814003e-05
4.720944377751099924e-09,-2.886119040920400551e-05
4.740948379351740696e-09,-2.644992623302407986e-05
4.760952380952380642e-09,-2.075190269820999613e-05
4.780956382553021414e-09,-1.173297095459344698e-05
4.800960384153661360e-09,4.636086201987770636e-07
4.820964385754301305e-09,1.551946366975007102e-05
4.840968387354942078e-09,3.295364565592292627e-05
4.860972388955582023e-09,5.214471776129306260e-05
4.880976390556222796e-09,7.236113750762420457e-05
4.900980392156862742e-09,9.279818331786592078e-05
4.920984393757502687e-09,1.126192880510752480e-04
4.940988395358143460e-09,1.309993864303088645e-04
4.960992396958783405e-09,1.471677721448128463e-04
4.980996398559423351e-09,1.604480001694306784e-04
5.001000400160064123e-09,1.702925572096128978e-04
5.021004401760704069e-09,1.763103458634000375e-04
5.041008403361344014e-09,1.782854656168032022e-04
5.061012404961984787e-09,1.761862988080470957e-04
5.081016406562624732e-09,1.701644896997197589e-04
5.101020408163265505e-09,1.605440041447197370e-04
5.121024409763905450e-09,1.478010394539035807e-04
5.141028411364545396e-09,1.325360837487775455e-04
5.161032412965186169e-09,1.154398695529921962e-04
5.181036414565826114e-09,9.725530132870259363e-05
5.201040416166466887e-09,7.873764176349297634e-05
5.221044417767106832e-09,6.061530568276642735e-05
5.241048419367746778e-09,4.355353108937619301e-05
5.261052420968387550e-09,2.812298045760784236e-05
5.281056422569027496e-09,1.477498688502912582e-05
5.301060424169667441e-09,3.824721257683810035e-06
5.321064425770308214e-09,-4.556953533898740553e-06
5.341068427370948159e-09,-1.034272470144623624e-05
5.361072428971588105e-09,-1.363950550112975101e-05
5.381076430572228878e-09,-1.467140688874433046e-05
5.401080432172868823e-09,-1.375632900444869504e-05
5.421084433773509596e-09,-1.127786855135462475e-05
5.441088435374149541e-09,-7.654497505885107813e-06
5.461092436974789487e-09,-3.308100380624715424e-06
5.481096438575430259e-09,1.366045463281545691e-06
5.501100440176070205e-09,6.025897559166053523e-06
5.521104441776710977e-09,1.040419378887588053e-05
5.541108443377350923e-09,1.432358905760730142e-05
5.561112444977990868e-09,1.770450175661841672e-05
5.581116446578631641e-09,2.056528573471351216e-05
5.601120448179271586e-09,2.301486059187436115e-05
5.621124449779911532e-09,2.523843690224680748e-05
5.641128451380552305e-09,2.747743128670401049e-05
5.661132452981192250e-09,3.000504997334380367e-05
5.681136454581832196e-09,3.309930437120755517e-05
5.701140456182472968e-09,3.701539039928760169e-05
5.721144457783112914e-09,4.195940450484200534e-05
5.741148459383753686e-09,4.806528121412771671e-05
5.761152460984393632e-09,5.537662567184120687e-05
5.781156462585033577e-09,6.383479369959842121e-05
5.801160464185674350e-09,7.327416216245326882e-05
5.821164465786314295e-09,8.342506014072139091e-05
5.841168467386955068e-09,9.392432679233406916e-05
5.861172468987595014e-09,1.043329570569239491e-04
5.881176470588234959e-09,1.141598237016173739e-04
5.901180472188875732e-09,1.228900537811799870e-04
5.921184473789515677e-09,1.300163155798053399e-04
5.941188475390155623e-09,1.350710591643907073e-04
5.961192476990796395e-09,1.376576635667723172e-04
5.981196478591436341e-09,1.374784823919919801e-04
6.001200480192076286e-09,1.343579452996525889e-04
6.021204481792717059e-09,1.282591553709635786e-04
6.041208483393357004e-09,1.192928045747651517e-04
6.061212484993997777e-09,1.077176879137350756e-04
6.081216486594637722e-09,9.393260310952138451e-05
6.101220488195277668e-09,7.845994567482165603e-05
6.121224489795918441e-09,6.192181663791120321e-05
6.141228491396558386e-09,4.500992076214358872e-05
6.161232492997199159e-09,2.845091841544045310e-05
6.181236494597839104e-09,1.296918058369549434e-05
6.201240496198479050e-09,-7.509337741869179304e-07
6.221244497799119822e-09,-1.210111617292977776e-05
6.241248499399759768e-09,-2.058138804653185627e-05
6.261252501000399713e-09,-2.582675781428136853e-05
6.281256502601040486e-09,-2.762671508394879029e-05
6.301260504201680431e-09,-2.593643619327755308e-05
6.321264505802320377e-09,-2.087905652193140321e-05
6.341268507402961150e-09,-1.273888361588750639e-05
6.361272509003601095e-09,-1.945949785788696033e-06
6.381276510604241868e-09,1.094719807755148758e-05
6.401280512204881813e-09,2.529513005164085086e-05
6.421284513805521759e-09,4.039388271356912728e-05
6.441288515406162531e-09,5.551806421353869443e-05
6.461292517006802477e-09,6.995861109625916337e-05
6.481296518607443249e-09,8.305907696440859315e-05
6.501300520208083195e-09,9.424844208118017162e-05
6.521304521808723140e-09,1.030686594274520386e-04
6.541308523409363913e-09,1.091954817463441788e-04
6.561312525010003858e-09,1.124515248862013140e-04
6.581316526610643804e-09,1.128109896188640140e-04
6.601320528211284577e-09,1.103959583116447630e-04
6.621324529811924522e-09,1.054646742332204887e-04
6.641328531412564468e-09,9.839267028214200789e-05
6.661332533013205240e-09,8.964801329413402912e-05
6.681336534613845186e-09,7.976224652663955615e-05
6.701340536214485958e-09,6.929882858876259774e-05
6.721344537815125904e-09,5.882097049618431383e-05
6.741348539415765849e-09,4.886075931979843375e-05
6.761352541016406622e-09,3.989132989167208643e-05
6.781356542617046567e-09,3.230361507693164670e-05
6.801360544217687340e-09,2.638888630932521669e-05
6.821364545818327286e-09,2.232791072582377339e-05
6.841368547418967231e-09,2.018712441975931081e-05
6.861372549019608004e-09,1.992178032577024188e-05
6.881376550620247949e-09,2.138560178177811524e-05
6.901380552220887895e-09,2.434608527894672946e-05
6.921384553821528667e-09,2.850427178397089861e-05
6.941388555422168613e-09,3.351756437314084311e-05
6.961392557022808558e-09,3.902402430679217243e-05
6.981396558623449331e-09,4.466653534012920968e-05
7.001400560224089276e-09,5.011528757638093875e-05
7.021404561824730049e-09,5.508719144963268686e-05
7.041408563425369994e-09,5.936107728939506124e-05
7.061412565026009940e-09,6.278784884875535837e-05
7.081416566626650713e-09,6.529511861679939745e-05
7.101420568227290658e-09,6.688623442215335679e-05
7.121424569827931431e-09,6.763398548589817563e-05
7.141428571428571376e-09,6.766962697324643784e-05
7.161432573029211322e-09,6.716816268294271042e-05
7.181436574629852094e-09,6.633105686469205841e-05
7.201440576230492040e-09,6.536769410497080554e-05
7.221444577831131985e-09,6.447696229345990652e-05
7.241448579431772758e-09,6.383029549880706803e-05
7.261452581032412703e-09,6.355738504876723210e-05
7.281456582633052649e-09,6.373555800236596484e-05
7.301460584233693421e-09,6.438354755234467549e-05
7.321464585834333367e-09,6.546005889404441294e-05
7.341468587434974140e-09,6.686718884540413974e-05
7.361472589035614085e-09,6.845841150991932144e-05
7.381476590636254031e-09,7.005051890520338771e-05
7.401480592236894803e-09,7.143862644405060735e-05
7.421484593837534749e-09,7.241313703645659028e-05
7.441488595438175521e-09,7.277741869584084054e-05
7.461492597038815467e-09,7.236489795004320651e-05
7.481496598639455412e-09,7.105430836510745691e-05
7.501500600240095358e-09,6.878195739068324261e-05
7.521504601840735303e-09,6.555007703698590186e-05
7.541508603441376903e-09,6.143059090111628584e-05
7.561512605042016849e-09,5.656394380608278021e-05
7.581516606642656794e-09,5.115297969434354799e-05
7.601520608243296739e-09,4.545219568930985386e-05
7.621524609843936685e-09,3.975302239716568917e-05
7.641528611444578285e-09,3.436606093918096372e-05
7.661532613045218230e-09,2.960142695111449098e-05
7.681536614645858176e-09,2.574849593955066526e-05
7.701540616246498121e-09,2.305640298766574667e-05
7.721544617847138067e-09,2.171661850124411726e-05
7.741548619447779667e-09,2.184880207894550905e-05
7.761552621048419612e-09,2.349093605194256838e-05
7.781556622649059557e-09,2.659447151461453329e-05
7.801560624249699503e-09,3.102490002039276718e-05
7.821564625850339448e-09,3.656781419424409328e-05
7.841568627450981048e-09,4.294016304617690718e-05
7.861572629051620994e-09,4.980606607002512623e-05
7.881576630652260939e-09,5.679624664930538018e-05
7.901580632252900885e-09,6.352989988509121530e-05
7.921584633853540830e-09,6.963763900253530398e-05
7.941588635454180776e-09,7.478407955506660297e-05
